Time, Sample Count, IR Count, Red Count, Raw ECG, Raw ECG (mV), Filtered ECG, Filtered ECG (mV)
2023-11-30 18:14:06.208,91182,219499,169826,2165,0.662868875,3432,1.0507926
2023-11-30 18:14:06.238,91183,219501,169812,8834,2.70474995,3517,1.076817475
2023-11-30 18:14:06.268,91184,219504,169817,2602,0.79666735,3553,1.087839775
2023-11-30 18:14:06.268,91185,219524,169823,-1422,-0.43538085,3429,1.049874075
2023-11-30 18:14:06.268,91186,219531,169813,8230,2.51982025,3453,1.057222275
2023-11-30 18:14:06.268,91187,219544,169815,6269,1.919411075,3531,1.081103925
2023-11-30 18:14:06.298,91188,219542,169814,-2497,-0.764518975,3426,1.04895555
2023-11-30 18:14:06.298,91189,219540,169821,5683,1.739992525,3372,1.0324221
2023-11-30 18:14:06.298,91190,219558,169829,8497,2.601568975,3460,1.0593655
2023-11-30 18:14:06.298,91191,219560,169821,-524,-0.1604357,3418,1.04650615
2023-11-30 18:14:06.298,91192,219556,169817,1792,0.5486656,3314,1.01466395
2023-11-30 18:14:06.328,91193,219584,169807,8950,2.74026625,3408,1.0434444
2023-11-30 18:14:06.328,91194,219597,169831,2692,0.8242231,3472,1.0630396
2023-11-30 18:14:06.328,91195,219578,169833,-2237,-0.684913475,3374,1.03303445
2023-11-30 18:14:06.328,91196,219612,169820,7107,2.175985725,3427,1.049261725
2023-11-30 18:14:06.359,91197,219616,169824,5292,1.6202781,3550,1.08692125
2023-11-30 18:14:06.359,91198,219603,169816,-3617,-1.107434975,3496,1.0703878
2023-11-30 18:14:06.359,91199,219591,169820,4730,1.44820775,3495,1.070081625
2023-11-30 18:14:06.359,91200,219613,169825,8237,2.521963475,3653,1.118457275
2023-11-30 18:14:06.359,91201,219615,169818,-136,-0.0416398,3677,1.125805475
2023-11-30 18:14:06.359,91202,219617,169797,1947,0.596122725,3603,1.103148525
2023-11-30 18:14:06.359,91203,219620,169810,8868,2.7151599,3702,1.13345985
2023-11-30 18:14:06.388,91204,219609,169810,3294,1.00854045,3765,1.152748875
2023-11-30 18:14:06.388,91205,219628,169814,-2056,-0.6294958,3661,1.120906675
2023-11-30 18:14:06.388,91206,219624,169821,7306,2.23691455,3709,1.135603075
2023-11-30 18:14:06.388,91207,219618,169806,6224,1.9056332,3837,1.174793475
2023-11-30 18:14:06.388,91208,219646,169814,-2607,-0.798198225,3770,1.15427975
2023-11-30 18:14:06.388,91209,219624,169815,4725,1.446676875,3721,1.139277175
2023-11-30 18:14:06.388,91210,219638,169805,7505,2.297843375,3821,1.169894675
2023-11-30 18:14:06.419,91211,219646,169797,-454,-0.13900345,3784,1.1585662
2023-11-30 18:14:06.419,91212,219636,169810,894,0.27372045,3646,1.11631405
2023-11-30 18:14:06.419,91213,219668,169804,7871,2.409903425,3688,1.1291734
2023-11-30 18:14:06.419,91214,219649,169796,3006,0.92036205,3686,1.12856105
2023-11-30 18:14:06.419,91215,219665,169803,-2167,-0.663481225,3479,1.065182825
2023-11-30 18:14:06.419,91216,219673,169809,6841,2.094543175,3322,1.01711335
2023-11-30 18:14:06.449,91217,219667,169803,5955,1.823272125,3460,1.0593655
2023-11-30 18:14:06.449,91218,219670,169808,-2921,-0.894337175,3297,1.009458975
2023-11-30 18:14:06.449,91219,219661,169805,4041,1.237253175,3229,0.988639075
2023-11-30 18:14:06.449,91220,219695,169807,7374,2.25773445,3358,1.02813565
2023-11-30 18:14:06.449,91221,219689,169814,-300,-0.0918525,3420,1.0471185
2023-11-30 18:14:06.449,91222,219704,169805,642,0.19656435,3287,1.006397225
2023-11-30 18:14:06.449,91223,219723,169817,7697,2.356628975,3378,1.03425915
2023-11-30 18:14:06.449,91224,219709,169817,3102,0.94975485,3455,1.057834625
2023-11-30 18:14:06.490,91225,219726,169813,-2499,-0.765131325,3336,1.0213998
2023-11-30 18:14:06.490,91226,219731,169818,6544,2.0036092,3422,1.04773085
2023-11-30 18:14:06.490,91227,219744,169826,5788,1.7721409,3568,1.0924324
2023-11-30 18:14:06.490,91228,219750,169827,-2791,-0.854534425,3517,1.076817475
2023-11-30 18:14:06.490,91229,219756,169811,3814,1.16775145,3450,1.05630375
2023-11-30 18:14:06.490,91230,219784,169824,7261,2.223136675,3509,1.074368075
2023-11-30 18:14:06.490,91231,219788,169825,-499,-0.152781325,3427,1.049261725
2023-11-30 18:14:06.490,91232,219802,169825,-25,-0.007654375,3232,0.9895576
2023-11-30 18:14:06.521,91233,219807,169842,7347,2.249467725,3234,0.99016995
2023-11-30 18:14:06.521,91234,219827,169819,3053,0.934752275,3253,0.995987275
2023-11-30 18:14:06.521,91235,219831,169830,-2783,-0.852085025,3110,0.95220425
2023-11-30 18:14:06.521,91236,219817,169841,6322,1.93563835,3096,0.9479178
2023-11-30 18:14:06.521,91237,219804,169830,5625,1.722234375,3179,0.973330325
2023-11-30 18:14:06.547,91238,219797,169813,-2927,-0.896174225,3090,0.94608075
2023-11-30 18:14:06.547,91239,219725,169802,3654,1.11876345,3004,0.9197497
2023-11-30 18:14:06.547,91240,219680,169756,7404,2.2669197,3081,0.943325175
2023-11-30 18:14:06.547,91241,219594,169722,-204,-0.0624597,3064,0.9381202
2023-11-30 18:14:06.547,91242,219463,169694,-413,-0.126450275,2947,0.902297725
2023-11-30 18:14:06.547,91243,219329,169640,7553,2.312539775,3011,0.921892925
2023-11-30 18:14:06.547,91244,219179,169579,3268,1.0005799,3069,0.939651075
2023-11-30 18:14:06.581,91245,218989,169493,-2823,-0.864332025,2940,0.9001545
2023-11-30 18:14:06.581,91246,218796,169437,6682,2.04586135,2920,0.894031
2023-11-30 18:14:06.581,91247,218629,169364,6272,1.9203296,3001,0.918831175
2023-11-30 18:14:06.581,91248,218443,169279,-2930,-0.89709275,2918,0.89341865
2023-11-30 18:14:06.581,91249,218264,169213,3304,1.0116022,2834,0.86769995
2023-11-30 18:14:06.581,91250,218116,169167,8122,2.48675335,2916,0.8928063
2023-11-30 18:14:06.581,91251,217994,169123,-50,-0.01530875,2900,0.8879075
2023-11-30 18:14:06.612,91252,217920,169099,-717,-0.219527475,2762,0.84565535
2023-11-30 18:14:06.612,91253,217865,169070,7920,2.424906,2793,0.855146775
2023-11-30 18:14:06.612,91254,217857,169083,4069,1.245826075,2828,0.8658629
2023-11-30 18:14:06.612,91255,217855,169089,-2819,-0.863107325,2695,0.825141625
2023-11-30 18:14:06.612,91256,217897,169112,6606,2.02259205,2686,0.82238605
2023-11-30 18:14:06.612,91257,217934,169131,7148,2.1885389,2795,0.855759125
2023-11-30 18:14:06.612,91258,217995,169139,-2009,-0.615105575,2740,0.8389195
2023-11-30 18:14:06.612,91259,218041,169175,3421,1.047424675,2669,0.817181075
2023-11-30 18:14:06.643,91260,218115,169199,8541,2.615040675,2767,0.847186225
2023-11-30 18:14:06.643,91261,218202,169227,1040,0.318422,2779,0.850860325
2023-11-30 18:14:06.643,91262,218271,169256,-204,-0.0624597,2673,0.818405775
2023-11-30 18:14:06.643,91263,218348,169298,8392,2.5694206,2755,0.843512125
2023-11-30 18:14:06.643,91264,218419,169333,4499,1.377481325,2857,0.874741975
2023-11-30 18:14:06.643,91265,218490,169344,-2852,-0.8732111,2773,0.849023275
2023-11-30 18:14:06.643,91266,218574,169379,6528,1.9987104,2789,0.853922075
2023-11-30 18:14:06.673,91267,218615,169410,7073,2.165575775,2921,0.894337175
2023-11-30 18:14:06.673,91268,218687,169423,-2129,-0.651846575,2880,0.881784
2023-11-30 18:14:06.673,91269,218724,169445,3082,0.94363135,2808,0.8597394
2023-11-30 18:14:06.673,91270,218809,169462,8015,2.453992625,2921,0.894337175
2023-11-30 18:14:06.673,91271,218829,169477,988,0.3025009,2965,0.907808875
2023-11-30 18:14:06.673,91272,218862,169495,-609,-0.186460575,2881,0.882090175
2023-11-30 18:14:06.703,91273,218883,169508,7929,2.427661575,2972,0.9099521
2023-11-30 18:14:06.703,91274,218915,169519,4602,1.40901735,3091,0.946386925
2023-11-30 18:14:06.703,91275,218928,169514,-2826,-0.86525055,3028,0.9270979
2023-11-30 18:14:06.703,91276,218956,169526,6000,1.83705,3067,0.939038725
2023-11-30 18:14:06.703,91277,218973,169526,6645,2.034532875,3232,0.9895576
2023-11-30 18:14:06.703,91278,219002,169541,-1877,-0.574690475,3231,0.989251425
2023-11-30 18:14:06.703,91279,219020,169538,2789,0.853922075,3203,0.980678525
2023-11-30 18:14:06.734,91280,219037,169535,7781,2.382347675,3366,1.03058505
2023-11-30 18:14:06.734,91281,219066,169559,1214,0.37169645,3445,1.054772875
2023-11-30 18:14:06.734,91282,219094,169553,-862,-0.26392285,3361,1.029054175
2023-11-30 18:14:06.734,91283,219115,169570,7595,2.325399125,3436,1.0520173
2023-11-30 18:14:06.734,91284,219126,169586,4673,1.430755775,3533,1.081716275
2023-11-30 18:14:06.734,91285,219186,169586,-2970,-0.90933975,3424,1.0483432
2023-11-30 18:14:06.734,91286,219192,169593,5787,1.771834725,3388,1.0373209
2023-11-30 18:14:06.769,91287,219215,169613,6835,2.092706125,3476,1.0642643
2023-11-30 18:14:06.769,91288,219238,169621,-1947,-0.596122725,3402,1.04160735
2023-11-30 18:14:06.769,91289,219235,169625,2644,0.8095267,3285,1.005784875
2023-11-30 18:14:06.769,91290,219251,169629,7869,2.409291075,3354,1.02691095
2023-11-30 18:14:06.769,91291,219249,169616,1368,0.4188474,3355,1.027217125
2023-11-30 18:14:06.796,91292,219262,169632,-1170,-0.35822475,3213,0.983740275
2023-11-30 18:14:06.796,91293,219274,169626,7379,2.259265325,3241,0.992313175
2023-11-30 18:14:06.796,91294,219242,169619,4804,1.4708647,3304,1.0116022
2023-11-30 18:14:06.796,91295,219259,169617,-2890,-0.88484575,3181,0.973942675
2023-11-30 18:14:06.796,91296,219242,169611,5718,1.75070865,3141,0.961695675
2023-11-30 18:14:06.796,91297,219244,169604,7129,2.182721575,3236,0.9907823
2023-11-30 18:14:06.796,91298,219203,169607,-1607,-0.492023225,3184,0.9748612
2023-11-30 18:14:06.827,91299,219214,169592,2204,0.6748097,3088,0.9454684
2023-11-30 18:14:06.827,91300,219208,169599,8158,2.49777565,3175,0.972105625
2023-11-30 18:14:06.827,91301,219186,169575,1599,0.489573825,3198,0.97914765
2023-11-30 18:14:06.827,91302,219180,169577,-1477,-0.452220475,3067,0.939038725
2023-11-30 18:14:06.827,91303,219187,169577,7757,2.374999475,3095,0.947611625
2023-11-30 18:14:06.827,91304,219171,169567,5222,1.59884585,3170,0.97057475
2023-11-30 18:14:06.858,91305,219167,169546,-2751,-0.842287425,3066,0.93873255
2023-11-30 18:14:06.858,91306,219147,169564,5760,1.763568,3036,0.9295473
2023-11-30 18:14:06.858,91307,219165,169564,7371,2.256815925,3145,0.962920375
2023-11-30 18:14:06.858,91308,219161,169550,-1359,-0.416091825,3114,0.95342895
2023-11-30 18:14:06.858,91309,219180,169552,2013,0.616330275,3024,0.9258732
2023-11-30 18:14:06.858,91310,219187,169552,8442,2.58472935,3108,0.9515919
2023-11-30 18:14:06.858,91311,219191,169552,2136,0.6539898,3137,0.960470975
2023-11-30 18:14:06.858,91312,219198,169553,-1636,-0.5009023,3013,0.922505275
2023-11-30 18:14:06.858,91313,219204,169562,7779,2.381735325,3049,0.933527575
2023-11-30 18:14:06.889,91314,219234,169579,5596,1.7133553,3145,0.962920375
2023-11-30 18:14:06.889,91315,219249,169561,-2996,-0.9173003,3063,0.937814025
2023-11-30 18:14:06.889,91316,219247,169569,5455,1.670184625,3044,0.9319967
2023-11-30 18:14:06.889,91317,219261,169583,7800,2.388165,3167,0.969656225
2023-11-30 18:14:06.889,91318,219262,169570,-1312,-0.4017016,3145,0.962920375
2023-11-30 18:14:06.889,91319,219297,169578,1358,0.41578565,3053,0.934752275
2023-11-30 18:14:06.889,91320,219319,169589,8727,2.671989225,3147,0.963532725
2023-11-30 18:14:06.920,91321,219349,169600,2562,0.78442035,3204,0.9809847
2023-11-30 18:14:06.920,91322,219364,169594,-1884,-0.5768337,3105,0.950673375
2023-11-30 18:14:06.920,91323,219374,169602,7881,2.412965175,3161,0.967819175
2023-11-30 18:14:06.920,91324,219393,169609,6065,1.856951375,3278,1.00364165
2023-11-30 18:14:06.920,91325,219422,169611,-2729,-0.835551575,3207,0.981903225
2023-11-30 18:14:06.950,91326,219424,169605,5346,1.63681155,3185,0.975167375
2023-11-30 18:14:06.950,91327,219443,169630,8105,2.481548375,3311,1.013745425
2023-11-30 18:14:06.950,91328,219472,169629,-728,-0.2228954,3297,1.009458975
2023-11-30 18:14:06.981,91329,219484,169636,1280,0.391904,3205,0.981290875
2023-11-30 18:14:06.981,91330,219524,169659,8663,2.652394025,3305,1.011908375
2023-11-30 18:14:06.981,91331,219548,169664,2833,0.867393775,3371,1.032115925
2023-11-30 18:14:06.981,91332,219532,169664,-2226,-0.68154555,3264,0.9993552
2023-11-30 18:14:06.981,91333,219568,169676,7443,2.278860525,3298,1.00976515
2023-11-30 18:14:06.981,91334,219580,169666,6128,1.8762404,3398,1.04038265
2023-11-30 18:14:07.012,91335,219586,169648,-3087,-0.945162225,3304,1.0116022
2023-11-30 18:14:07.012,91336,219589,169686,4595,1.406874125,3246,0.99384405
2023-11-30 18:14:07.012,91337,219614,169678,7603,2.327848525,3355,1.027217125
2023-11-30 18:14:07.012,91338,219601,169674,-1213,-0.371390275,3341,1.022930675
2023-11-30 18:14:07.012,91339,219613,169672,18,0.00551115,3242,0.99261935
2023-11-30 18:14:07.012,91340,219614,169676,7308,2.2375269,3338,1.02201215
2023-11-30 18:14:07.043,91341,219616,169681,1713,0.524477775,3410,1.04405675
2023-11-30 18:14:07.043,91342,219618,169663,-3219,-0.985577325,3306,1.01221455
2023-11-30 18:14:07.043,91343,219621,169656,6514,1.99442395,3347,1.024767725
2023-11-30 18:14:07.043,91344,219634,169676,5967,1.826946225,3470,1.06242725
2023-11-30 18:14:07.043,91345,219629,169681,-2312,-0.7078766,3405,1.042525875
2023-11-30 18:14:07.043,91346,219638,169680,4993,1.528731775,3371,1.032115925
2023-11-30 18:14:07.043,91347,219667,169690,7859,2.406229325,3506,1.07344955
2023-11-30 18:14:07.084,91348,219644,169678,-171,-0.052355925,3506,1.07344955
2023-11-30 18:14:07.084,91349,219667,169678,648,0.1984014,3392,1.0385456
2023-11-30 18:14:07.084,91350,219680,169685,7805,2.389695875,3463,1.060284025
2023-11-30 18:14:07.084,91351,219688,169686,3106,0.95097955,3511,1.074980425
2023-11-30 18:14:07.084,91352,219689,169696,-2463,-0.754109025,3367,1.030891225
2023-11-30 18:14:07.084,91353,219691,169680,6840,2.094237,3348,1.0250739
2023-11-30 18:14:07.084,91354,219698,169686,6012,1.8407241,3410,1.04405675
2023-11-30 18:14:07.115,91355,219703,169677,-2834,-0.86769995,3274,1.00241695
2023-11-30 18:14:07.115,91356,219695,169677,4057,1.242151975,3140,0.9613895
2023-11-30 18:14:07.115,91357,219691,169684,7545,2.310090375,3159,0.967206825
2023-11-30 18:14:07.115,91358,219684,169684,-316,-0.0967513,3044,0.9319967
2023-11-30 18:14:07.115,91359,219680,169685,237,0.072563475,2818,0.86280115
2023-11-30 18:14:07.115,91360,219691,169685,7633,2.337033775,2795,0.855759125
2023-11-30 18:14:07.115,91361,219712,169682,3108,0.9515919,2792,0.8548406
2023-11-30 18:14:07.115,91362,219697,169679,-2681,-0.820855175,2647,0.810445225
2023-11-30 18:14:07.115,91363,219698,169680,6574,2.01279445,2670,0.81748725
2023-11-30 18:14:07.146,91364,219695,169658,6087,1.863687225,2950,0.90321625
2023-11-30 18:14:07.146,91365,219722,169687,-2939,-0.899848325,2806,0.85912705
2023-11-30 18:14:07.146,91366,219747,169676,3791,1.160709425,2780,0.8511665
2023-11-30 18:14:07.146,91367,219739,169691,7755,2.374387125,2960,0.906278
2023-11-30 18:14:07.146,91368,219757,169684,-341,-0.104405675,3046,0.93260905
2023-11-30 18:14:07.146,91369,219753,169686,-70,-0.02143225,2842,0.87014935
2023-11-30 18:14:07.146,91370,219775,169695,8132,2.4898151,3093,0.946999275
2023-11-30 18:14:07.174,91371,219773,169695,3403,1.041913525,3225,0.987414375
2023-11-30 18:14:07.174,91372,219774,169710,-2927,-0.896174225,3155,0.965982125
2023-11-30 18:14:07.174,91373,219775,169713,6623,2.027797025,3171,0.970880925
2023-11-30 18:14:07.174,91374,219806,169720,6230,1.90747025,3253,0.995987275
2023-11-30 18:14:07.174,91375,219825,169718,-2710,-0.82973425,3140,0.9613895
2023-11-30 18:14:07.174,91376,219839,169716,3540,1.0838595,3015,0.923117625
2023-11-30 18:14:07.207,91377,219862,169733,7984,2.4445012,3060,0.9368955
2023-11-30 18:14:07.207,91378,219865,169740,38,0.01163465,3025,0.926179375
2023-11-30 18:14:07.207,91379,219871,169743,-567,-0.173601225,2895,0.886376625
2023-11-30 18:14:07.207,91380,219851,169749,8186,2.50634855,2961,0.906584175
2023-11-30 18:14:07.207,91381,219851,169746,3717,1.138052475,3035,0.929241125
2023-11-30 18:14:07.207,91382,219837,169730,-3204,-0.9809847,2918,0.89341865
2023-11-30 18:14:07.207,91383,219738,169704,6236,1.9093073,2904,0.8891322
2023-11-30 18:14:07.236,91384,219659,169669,6655,2.037594625,2998,0.91791265
2023-11-30 18:14:07.236,91385,219590,169619,-2727,-0.834939225,2923,0.894949525
2023-11-30 18:14:07.236,91386,219437,169561,3027,0.926791725,2849,0.872292575
2023-11-30 18:14:07.236,91387,219294,169503,8208,2.5130844,2964,0.9075027
2023-11-30 18:14:07.236,91388,219137,169415,265,0.081136375,2991,0.915769425
2023-11-30 18:14:07.236,91389,218937,169372,-1145,-0.350570375,2887,0.883927225
2023-11-30 18:14:07.268,91390,218712,169282,7992,2.4469506,2953,0.904134775
2023-11-30 18:14:07.268,91391,218506,169197,3894,1.19224545,3030,0.92771025
2023-11-30 18:14:07.268,91392,218302,169129,-3422,-1.04773085,2923,0.894949525
2023-11-30 18:14:07.268,91393,218086,169049,6030,1.84623525,2929,0.896786575
2023-11-30 18:14:07.268,91394,217921,168983,6437,1.970848475,3053,0.934752275
2023-11-30 18:14:07.299,91395,217811,168936,-2894,-0.88607045,3003,0.919443525
2023-11-30 18:14:07.299,91396,217695,168915,2690,0.82361075,2930,0.89709275
2023-11-30 18:14:07.299,91397,217640,168909,7897,2.417863975,3039,0.930465825
2023-11-30 18:14:07.299,91398,217620,168905,378,0.11573415,3054,0.93505845
2023-11-30 18:14:07.299,91399,217623,168908,-1217,-0.372614975,2928,0.8964804
2023-11-30 18:14:07.299,91400,217640,168919,7768,2.3783674,2978,0.91178915
2023-11-30 18:14:07.299,91401,217712,168941,4184,1.2810362,3054,0.93505845
2023-11-30 18:14:07.299,91402,217751,168974,-3182,-0.97424885,2942,0.90076685
2023-11-30 18:14:07.330,91403,217816,168996,6114,1.87195395,2927,0.896174225
2023-11-30 18:14:07.330,91404,217922,169040,6903,2.113526025,3038,0.93015965
2023-11-30 18:14:07.330,91405,217997,169061,-2128,-0.6515404,2981,0.912707675
2023-11-30 18:14:07.330,91406,218090,169097,2668,0.8168749,2888,0.8842334
2023-11-30 18:14:07.330,91407,218171,169133,7857,2.405616975,2982,0.91301385
2023-11-30 18:14:07.330,91408,218240,169162,1013,0.310155275,2992,0.9160756
2023-11-30 18:14:07.360,91409,218321,169196,-940,-0.2878045,2852,0.8732111
2023-11-30 18:14:07.360,91410,218397,169221,7534,2.30672245,2890,0.88484575
2023-11-30 18:14:07.360,91411,218493,169265,4438,1.35880465,2960,0.906278
2023-11-30 18:14:07.360,91412,218538,169285,-2942,-0.90076685,2833,0.867393775
2023-11-30 18:14:07.360,91413,218610,169287,5885,1.801839875,2796,0.8560653
2023-11-30 18:14:07.392,91414,218644,169319,7064,2.1628202,2896,0.8866828
2023-11-30 18:14:07.392,91415,218707,169316,-2004,-0.6135747,2829,0.866169075
2023-11-30 18:14:07.392,91416,218732,169327,2329,0.713081575,2723,0.833714525
2023-11-30 18:14:07.392,91417,218774,169338,7887,2.414802225,2818,0.86280115
2023-11-30 18:14:07.392,91418,218764,169345,1447,0.443035225,2844,0.8707617
2023-11-30 18:14:07.392,91419,218795,169340,-1171,-0.358530925,2725,0.834326875
2023-11-30 18:14:07.422,91420,218829,169359,7421,2.272124675,2789,0.853922075
2023-11-30 18:14:07.422,91421,218825,169349,4856,1.4867858,2901,0.888213675
2023-11-30 18:14:07.422,91422,218848,169357,-2956,-0.9050533,2831,0.866781425
2023-11-30 18:14:07.422,91423,218866,169367,5411,1.656712925,2845,0.871067875
2023-11-30 18:14:07.422,91424,218902,169369,6875,2.104953125,2989,0.915157075
2023-11-30 18:14:07.422,91425,218929,169380,-1699,-0.520191325,2973,0.910258275
2023-11-30 18:14:07.452,91426,218953,169386,2013,0.616330275,2909,0.890663075
2023-11-30 18:14:07.452,91427,218997,169397,7760,2.375918,3027,0.926791725
2023-11-30 18:14:07.452,91428,219013,169412,1588,0.4862059,3073,0.940875775
2023-11-30 18:14:07.452,91429,219055,169425,-1465,-0.448546375,2964,0.9075027
2023-11-30 18:14:07.452,91430,219057,169428,7367,2.255591225,3022,0.92526085
2023-11-30 18:14:07.452,91431,219094,169446,5083,1.556287525,3123,0.956184525
2023-11-30 18:14:07.452,91432,219101,169452,-2922,-0.89464335,3029,0.927404075
2023-11-30 18:14:07.483,91433,219098,169439,5627,1.722846725,2998,0.91791265
2023-11-30 18:14:07.483,91434,219145,169440,7230,2.21364525,3106,0.95097955
2023-11-30 18:14:07.483,91435,219129,169443,-1433,-0.438748775,3072,0.9405696
2023-11-30 18:14:07.483,91436,219119,169435,2164,0.6625627,2982,0.91301385
2023-11-30 18:14:07.483,91437,219140,169422,8437,2.583198475,3073,0.940875775
2023-11-30 18:14:07.483,91438,219119,169428,2084,0.6380687,3114,0.95342895
2023-11-30 18:14:07.483,91439,219107,169415,-1437,-0.439973475,3004,0.9197497
2023-11-30 18:14:07.513,91440,219106,169422,7999,2.449093825,3044,0.9319967
2023-11-30 18:14:07.513,91441,219081,169412,5380,1.6472215,3127,0.957409225
2023-11-30 18:14:07.513,91442,219099,169410,-2966,-0.90811505,3021,0.924954675
2023-11-30 18:14:07.513,91443,219068,169403,5640,1.726827,2977,0.911482975
2023-11-30 18:14:07.513,91444,219075,169399,7846,2.40224905,3077,0.942100475
2023-11-30 18:14:07.544,91445,219076,169397,-1319,-0.403844825,3039,0.930465825
2023-11-30 18:14:07.544,91446,219063,169411,1646,0.50396405,2936,0.8989298
2023-11-30 18:14:07.544,91447,219050,169392,8803,2.695258525,3018,0.92403615
2023-11-30 18:14:07.544,91448,219052,169414,2503,0.766356025,3062,0.93750785
2023-11-30 18:14:07.544,91449,219060,169406,-1837,-0.562443475,2949,0.902910075
2023-11-30 18:14:07.544,91450,219050,169399,7853,2.404392275,2991,0.915769425
2023-11-30 18:14:07.544,91451,219069,169396,6100,1.8676675,3100,0.9491425
2023-11-30 18:14:07.575,91452,219053,169406,-2781,-0.851472675,3029,0.927404075
2023-11-30 18:14:07.575,91453,219065,169401,5416,1.6582438,3017,0.923729975
2023-11-30 18:14:07.575,91454,219073,169405,8240,2.522882,3164,0.9687377
2023-11-30 18:14:07.575,91455,219071,169405,-787,-0.240959725,3180,0.9736365
2023-11-30 18:14:07.575,91456,219084,169393,1415,0.433237625,3119,0.954959825
2023-11-30 18:14:07.575,91457,219089,169399,8837,2.705668475,3245,0.993537875
2023-11-30 18:14:07.606,91458,219109,169392,2703,0.827591025,3327,1.018644225
2023-11-30 18:14:07.606,91459,219120,169400,-2078,-0.63623165,3233,0.989863775
2023-11-30 18:14:07.606,91460,219113,169410,7442,2.27855435,3284,1.0054787
2023-11-30 18:14:07.606,91461,219141,169414,6073,1.859400775,3405,1.042525875
2023-11-30 18:14:07.606,91462,219181,169426,-3143,-0.962308025,3333,1.020481275
2023-11-30 18:14:07.637,91463,219175,169433,4686,1.43473605,3299,1.010071325
2023-11-30 18:14:07.637,91464,219222,169440,7693,2.355404275,3423,1.048037025
2023-11-30 18:14:07.637,91465,219226,169431,-1056,-0.3233208,3414,1.04528145
2023-11-30 18:14:07.637,91466,219248,169465,674,0.20636195,3314,1.01466395
2023-11-30 18:14:07.637,91467,219248,169461,8205,2.512165875,3404,1.0422197
2023-11-30 18:14:07.637,91468,219282,169461,2738,0.83830715,3465,1.060896375
2023-11-30 18:14:07.637,91469,219286,169464,-2334,-0.71461245,3356,1.0275233
2023-11-30 18:14:07.688,91470,219316,169478,7215,2.209052625,3397,1.040076475
2023-11-30 18:14:07.688,91471,219325,169465,6114,1.87195395,3518,1.07712365
2023-11-30 18:14:07.688,91472,219348,169471,-2946,-0.90199155,3451,1.056609925
2023-11-30 18:14:07.688,91473,219343,169471,4392,1.3447206,3418,1.04650615
2023-11-30 18:14:07.688,91474,219394,169478,7535,2.307028625,3552,1.0875336
2023-11-30 18:14:07.688,91475,219380,169484,-596,-0.1824803,3547,1.086002725
2023-11-30 18:14:07.719,91476,219385,169465,653,0.199932275,3431,1.050486425
2023-11-30 18:14:07.719,91477,219401,169467,7806,2.39000205,3501,1.071918675
2023-11-30 18:14:07.719,91478,219417,169481,3038,0.93015965,3546,1.08569655
2023-11-30 18:14:07.719,91479,219435,169476,-2526,-0.77339805,3400,1.040995
2023-11-30 18:14:07.719,91480,219427,169483,6856,2.0991358,3383,1.035790025
2023-11-30 18:14:07.719,91481,219466,169486,6088,1.8639934,3449,1.055997575
2023-11-30 18:14:07.719,91482,219469,169481,-3003,-0.919443525,3319,1.016194825
2023-11-30 18:14:07.719,91483,219465,169483,3874,1.18612195,3210,0.98282175
2023-11-30 18:14:07.750,91484,219467,169488,7547,2.310702725,3273,1.002110775
2023-11-30 18:14:07.750,91485,219473,169482,-900,-0.2755575,3220,0.9858835
2023-11-30 18:14:07.750,91486,219510,169492,-527,-0.161354225,3069,0.939651075
2023-11-30 18:14:07.750,91487,219499,169492,7101,2.174148675,3121,0.955572175
2023-11-30 18:14:07.750,91488,219511,169504,2381,0.729002675,3172,0.9711871
2023-11-30 18:14:07.750,91489,219524,169493,-2834,-0.86769995,3046,0.93260905
2023-11-30 18:14:07.750,91490,219526,169496,7042,2.15608435,3052,0.9344461
2023-11-30 18:14:07.781,91491,219548,169511,6753,2.067599775,3154,0.96567595
2023-11-30 18:14:07.781,91492,219552,169520,-2097,-0.642048975,3077,0.942100475
2023-11-30 18:14:07.781,91493,219584,169508,4513,1.381767775,3017,0.923729975
2023-11-30 18:14:07.781,91494,219580,169525,8074,2.47205695,3125,0.956796875
2023-11-30 18:14:07.781,91495,219580,169534,-201,-0.061541175,3122,0.95587835
2023-11-30 18:14:07.811,91496,219571,169521,4,0.0012247,3007,0.920668225
2023-11-30 18:14:07.811,91497,219588,169516,8333,2.551356275,3077,0.942100475
2023-11-30 18:14:07.811,91498,219573,169527,3542,1.08447185,3138,0.96077715
2023-11-30 18:14:07.811,91499,219607,169531,-2672,-0.8180996,3007,0.920668225
2023-11-30 18:14:07.811,91500,219606,169529,7278,2.22834165,2989,0.915157075
2023-11-30 18:14:07.811,91501,219604,169529,6712,2.0550466,3071,0.940263425
2023-11-30 18:14:07.811,91502,219591,169529,-2627,-0.804321725,2971,0.909645925
2023-11-30 18:14:07.842,91503,219602,169524,3827,1.171731725,2858,0.87504815
2023-11-30 18:14:07.842,91504,219597,169525,8259,2.528699325,2903,0.888826025
2023-11-30 18:14:07.842,91505,219611,169524,253,0.077462275,2843,0.870455525
2023-11-30 18:14:07.842,91506,219601,169524,-57,-0.017451975,2677,0.819630475
2023-11-30 18:14:07.842,91507,219593,169525,8256,2.5277808,2717,0.831877475
2023-11-30 18:14:07.842,91508,219611,169532,3659,1.120294325,2792,0.8548406
2023-11-30 18:14:07.873,91509,219637,169516,-2989,-0.915157075,2711,0.830040425
2023-11-30 18:14:07.873,91510,219611,169535,6665,2.040656375,2772,0.8487171
2023-11-30 18:14:07.873,91511,219646,169521,6735,2.062088625,3091,0.946386925
2023-11-30 18:14:07.873,91512,219636,169532,-2608,-0.7985044,3008,0.9209744
2023-11-30 18:14:07.873,91513,219661,169532,3176,0.9724118,2896,0.8866828
2023-11-30 18:14:07.873,91514,219650,169540,8123,2.487059525,3098,0.94853015
2023-11-30 18:14:07.873,91515,219671,169530,337,0.103180975,3171,0.970880925
2023-11-30 18:14:07.873,91516,219685,169537,-741,-0.226875675,3082,0.94363135
2023-11-30 18:14:07.873,91517,219676,169537,8311,2.544620425,3262,0.99874285
2023-11-30 18:14:07.904,91518,219715,169553,4332,1.3263501,3401,1.041301175
2023-11-30 18:14:07.904,91519,219709,169559,-2985,-0.913932375,3323,1.017419525
2023-11-30 18:14:07.904,91520,219713,169564,6392,1.9570706,3318,1.01588865
2023-11-30 18:14:07.904,91521,219732,169540,7012,2.1468991,3401,1.041301175
2023-11-30 18:14:07.904,91522,219732,169545,-2586,-0.79176855,3302,1.01098985
2023-11-30 18:14:07.904,91523,219745,169548,2905,0.889438375,3195,0.978229125
2023-11-30 18:14:07.904,91524,219722,169553,8376,2.5645218,3288,1.0067034
2023-11-30 18:14:07.934,91525,219714,169530,381,0.116652675,3303,1.011296025
2023-11-30 18:14:07.934,91526,219663,169541,-1328,-0.4066004,3194,0.97792295
2023-11-30 18:14:07.934,91527,219607,169482,8055,2.466239625,3266,0.99996755
2023-11-30 18:14:07.934,91528,219482,169442,4320,1.322676,3339,1.022318325
2023-11-30 18:14:07.934,91529,219347,169370,-3689,-1.129479575,3196,0.9785353
2023-11-30 18:14:07.985,91530,219148,169324,5636,1.7256023,3145,0.962920375
2023-11-30 18:14:07.985,91531,218961,169216,6782,2.07647885,3223,0.986802025
2023-11-30 18:14:07.985,91532,218668,169117,-2758,-0.84443065,3146,0.96322655
2023-11-30 18:14:07.985,91533,218371,168989,1983,0.607145025,3051,0.934139925
2023-11-30 18:14:07.985,91534,218021,168851,7526,2.30427305,3151,0.964757425
2023-11-30 18:14:07.985,91535,217704,168735,110,0.03367925,3173,0.971493275
2023-11-30 18:14:07.985,91536,217396,168630,-1917,-0.586937475,3051,0.934139925
2023-11-30 18:14:07.985,91537,217140,168530,7046,2.15730905,3106,0.95097955
2023-11-30 18:14:08.016,91538,216918,168449,3622,1.10896585,3193,0.977616775
2023-11-30 18:14:08.016,91539,216739,168381,-4067,-1.245213725,3088,0.9454684
2023-11-30 18:14:08.016,91540,216603,168346,4787,1.465659725,3079,0.942712825
2023-11-30 18:14:08.016,91541,216514,168310,5893,1.804289275,3206,0.98159705
2023-11-30 18:14:08.016,91542,216476,168305,-2908,-0.8903569,3154,0.96567595
2023-11-30 18:14:08.016,91543,216483,168316,1748,0.5351939,3046,0.93260905
2023-11-30 18:14:08.057,91544,216484,168321,7527,2.304579225,3129,0.958021575
2023-11-30 18:14:08.057,91545,216539,168335,788,0.2412659,3137,0.960470975
2023-11-30 18:14:08.057,91546,216604,168353,-1648,-0.5045764,2983,0.913320025
2023-11-30 18:14:08.057,91547,216674,168385,7244,2.2179317,2994,0.91668795
2023-11-30 18:14:08.057,91548,216752,168419,4492,1.3753381,3043,0.931690525
2023-11-30 18:14:08.057,91549,216834,168453,-3305,-1.011908375,2891,0.885151925
2023-11-30 18:14:08.057,91550,216915,168475,5250,1.60741875,2813,0.861270275
2023-11-30 18:14:08.057,91551,216989,168518,6552,2.0060586,2866,0.87749755
2023-11-30 18:14:08.087,91552,217077,168556,-2023,-0.619392025,2756,0.8438183
2023-11-30 18:14:08.087,91553,217181,168607,1847,0.565505225,2604,0.7972797
2023-11-30 18:14:08.087,91554,217231,168619,7621,2.333359675,2650,0.81136375
2023-11-30 18:14:08.087,91555,217296,168642,1272,0.3894546,2620,0.8021785
2023-11-30 18:14:08.087,91556,217384,168672,-1685,-0.515904875,2423,0.741862025
2023-11-30 18:14:08.087,91557,217436,168696,7091,2.171086925,2396,0.7335953
2023-11-30 18:14:08.087,91558,217491,168726,4640,1.420652,2420,0.7409435
2023-11-30 18:14:08.118,91559,217511,168739,-3331,-1.019868925,2258,0.69134315
2023-11-30 18:14:08.118,91560,217530,168742,5233,1.602213775,2186,0.66929855
2023-11-30 18:14:08.118,91561,217583,168755,6948,2.1273039,2278,0.69746665
2023-11-30 18:14:08.118,91562,217596,168755,-1805,-0.552645875,2240,0.685832
2023-11-30 18:14:08.118,91563,217609,168770,1743,0.533663025,2165,0.662868875
2023-11-30 18:14:08.149,91564,217605,168776,7977,2.442357975,2293,0.702059275
2023-11-30 18:14:08.149,91565,217600,168768,1574,0.48191945,2375,0.727165625
2023-11-30 18:14:08.149,91566,217613,168765,-1837,-0.562443475,2307,0.706345725
2023-11-30 18:14:08.149,91567,217589,168768,7459,2.283759325,2402,0.73543235
2023-11-30 18:14:08.149,91568,217597,168760,4922,1.50699335,2550,0.78074625
2023-11-30 18:14:08.149,91569,217617,168764,-3166,-0.96935005,2516,0.7703363
2023-11-30 18:14:08.149,91570,217592,168761,5252,1.6080311,2544,0.7789092
2023-11-30 18:14:08.149,91571,217631,168780,7359,2.253141825,2707,0.828815725
2023-11-30 18:14:08.180,91572,217657,168783,-1446,-0.44272905,2715,0.831265125
2023-11-30 18:14:08.180,91573,217695,168798,1534,0.46967245,2646,0.81013905
2023-11-30 18:14:08.180,91574,217758,168838,8401,2.572176175,2751,0.842287425
2023-11-30 18:14:08.180,91575,217806,168855,2073,0.634700775,2797,0.856371475
2023-11-30 18:14:08.180,91576,217865,168867,-1940,-0.5939795,2676,0.8193243
2023-11-30 18:14:08.180,91577,217926,168900,7816,2.3930638,2709,0.829428075
2023-11-30 18:14:08.210,91578,218008,168915,5745,1.758975375,2810,0.86035175
2023-11-30 18:14:08.210,91579,218012,168943,-3218,-0.98527115,2732,0.8364701
2023-11-30 18:14:08.210,91580,218056,168961,5025,1.538529375,2712,0.8303466
2023-11-30 18:14:08.210,91581,218096,168959,8014,2.45368645,2842,0.87014935
2023-11-30 18:14:08.210,91582,218125,168977,-965,-0.295458875,2836,0.8683123
2023-11-30 18:14:08.210,91583,218141,168973,1262,0.38639285,2754,0.84320595
2023-11-30 18:14:08.210,91584,218163,168984,8588,2.6294309,2859,0.875354325
2023-11-30 18:14:08.210,91585,218162,168995,2535,0.776153625,2922,0.89464335
2023-11-30 18:14:08.241,91586,218173,168979,-2250,-0.68889375,2819,0.863107325
2023-11-30 18:14:08.241,91587,218174,168976,7509,2.299068075,2868,0.8781099
2023-11-30 18:14:08.241,91588,218194,168987,5981,1.831232675,2988,0.9148509
2023-11-30 18:14:08.241,91589,218191,168973,-3187,-0.975779725,2924,0.8952557
2023-11-30 18:14:08.241,91590,218187,168988,4875,1.492603125,2905,0.889438375
2023-11-30 18:14:08.241,91591,218202,168984,7972,2.4408271,3043,0.931690525
2023-11-30 18:14:08.241,91592,218201,168990,-1069,-0.327301075,3045,0.932302875
2023-11-30 18:14:08.273,91593,218203,168984,722,0.22105835,2960,0.906278
2023-11-30 18:14:08.273,91594,218218,168987,8382,2.56635885,3070,0.93995725
2023-11-30 18:14:08.273,91595,218219,168998,2719,0.832489825,3154,0.96567595
2023-11-30 18:14:08.273,91596,218237,168978,-2566,-0.78564505,3062,0.93750785
2023-11-30 18:14:08.273,91597,218239,168998,7171,2.195580925,3111,0.952510425
2023-11-30 18:14:08.304,91598,218263,168999,6129,1.876546575,3242,0.99261935
2023-11-30 18:14:08.304,91599,218277,168995,-3322,-1.01711335,3184,0.9748612
2023-11-30 18:14:08.304,91600,218317,169003,4290,1.31349075,3154,0.96567595
2023-11-30 18:14:08.304,91601,218343,169016,7869,2.409291075,3285,1.005784875
2023-11-30 18:14:08.304,91602,218353,169025,-914,-0.27984395,3284,1.0054787
2023-11-30 18:14:08.304,91603,218371,169044,390,0.11940825,3184,0.9748612
2023-11-30 18:14:08.304,91604,218406,169050,8004,2.4506247,3274,1.00241695
2023-11-30 18:14:08.304,91605,218444,169055,2765,0.846573875,3332,1.0201751
2023-11-30 18:14:08.335,91606,218489,169064,-2716,-0.8315713,3201,0.980066175
2023-11-30 18:14:08.335,91607,218512,169068,6870,2.10342225,3212,0.9834341
2023-11-30 18:14:08.335,91608,218556,169088,6039,1.848990825,3318,1.01588865
2023-11-30 18:14:08.335,91609,218603,169094,-3057,-0.935976975,3228,0.9883329
2023-11-30 18:14:08.335,91610,218616,169115,4002,1.22531235,3154,0.96567595
2023-11-30 18:14:08.335,91611,218665,169133,7778,2.38142915,3253,0.995987275
2023-11-30 18:14:08.365,91612,218705,169143,-584,-0.1788062,3229,0.988639075
2023-11-30 18:14:08.365,91613,218753,169155,160,0.048988,3093,0.946999275
2023-11-30 18:14:08.365,91614,218781,169178,8187,2.506654725,3150,0.96445125
2023-11-30 18:14:08.365,91615,218813,169191,3000,0.918525,3198,0.97914765
2023-11-30 18:14:08.365,91616,218846,169197,-2928,-0.8964804,3060,0.9368955
2023-11-30 18:14:08.396,91617,218871,169199,6860,2.1003605,3058,0.93628315
2023-11-30 18:14:08.396,91618,218890,169214,6184,1.8933862,3155,0.965982125
2023-11-30 18:14:08.396,91619,218912,169216,-3020,-0.9246485,3063,0.937814025
2023-11-30 18:14:08.427,91620,218956,169236,3867,1.183978725,2979,0.912095325
2023-11-30 18:14:08.427,91621,218961,169238,7830,2.39735025,3070,0.93995725
2023-11-30 18:14:08.427,91622,218988,169251,-893,-0.273414275,3046,0.93260905
2023-11-30 18:14:08.427,91623,218999,169246,-370,-0.11328475,2912,0.8915816
2023-11-30 18:14:08.427,91624,219031,169241,8044,2.4628717,2975,0.910870625
2023-11-30 18:14:08.427,91625,219037,169245,2933,0.898011275,3037,0.929853475
2023-11-30 18:14:08.457,91626,219057,169264,-3194,-0.97792295,2909,0.890663075
2023-11-30 18:14:08.457,91627,219044,169256,6853,2.098217275,2907,0.890050725
2023-11-30 18:14:08.457,91628,219092,169246,6425,1.967174375,3012,0.9221991
2023-11-30 18:14:08.457,91629,219105,169262,-3001,-0.918831175,2937,0.899235975
2023-11-30 18:14:08.457,91630,219116,169260,3588,1.0985559,2870,0.87872225
2023-11-30 18:14:08.457,91631,219121,169268,8169,2.501143575,2986,0.91423855
2023-11-30 18:14:08.487,91632,219131,169277,-231,-0.070726425,2996,0.9173003
2023-11-30 18:14:08.487,91633,219160,169290,-450,-0.13777875,2882,0.88239635
2023-11-30 18:14:08.487,91634,219155,169288,8191,2.507879425,2955,0.904747125
2023-11-30 18:14:08.487,91635,219179,169287,3467,1.061508725,3031,0.928016425
2023-11-30 18:14:08.487,91636,219213,169292,-3052,-0.9344461,2917,0.893112475
2023-11-30 18:14:08.487,91637,219195,169311,6470,1.98095225,2921,0.894337175
2023-11-30 18:14:08.487,91638,219236,169310,6298,1.92829015,3032,0.9283226
2023-11-30 18:14:08.518,91639,219236,169298,-2819,-0.863107325,2953,0.904134775
2023-11-30 18:14:08.518,91640,219251,169296,3065,0.938426375,2860,0.8756605
2023-11-30 18:14:08.518,91641,219255,169313,7824,2.3955132,2949,0.902910075
2023-11-30 18:14:08.518,91642,219267,169314,219,0.067052325,2931,0.897398925
2023-11-30 18:14:08.518,91643,219276,169308,-900,-0.2755575,2787,0.853309725
2023-11-30 18:14:08.518,91644,219264,169320,7991,2.446644425,2842,0.87014935
2023-11-30 18:14:08.548,91645,219290,169318,3800,1.163465,2917,0.893112475
2023-11-30 18:14:08.548,91646,219297,169317,-3774,-1.15550445,2804,0.8585147
2023-11-30 18:14:08.548,91647,219300,169335,5553,1.700189775,2807,0.859433225
2023-11-30 18:14:08.548,91648,219323,169315,6024,1.8443982,2931,0.897398925
2023-11-30 18:14:08.548,91649,219338,169321,-3756,-1.1499933,2881,0.882090175
2023-11-30 18:14:08.548,91650,219355,169331,1672,0.5119246,2819,0.863107325
2023-11-30 18:14:08.548,91651,219328,169328,7938,2.43041715,2945,0.901685375
2023-11-30 18:14:08.548,91652,219377,169342,489,0.149719575,2975,0.910870625
2023-11-30 18:14:08.579,91653,219367,169341,-645,-0.197482875,2876,0.8805593
2023-11-30 18:14:08.579,91654,219387,169338,8697,2.662803975,2961,0.906584175
2023-11-30 18:14:08.579,91655,219390,169347,4846,1.48372405,3052,0.9344461
2023-11-30 18:14:08.579,91656,219426,169357,-3150,-0.96445125,2935,0.898623625
2023-11-30 18:14:08.579,91657,219383,169359,6111,1.871035425,2913,0.891887775
2023-11-30 18:14:08.579,91658,219426,169349,7222,2.21119585,3007,0.920668225
2023-11-30 18:14:08.579,91659,219417,169356,-2651,-0.811669925,2929,0.896786575
2023-11-30 18:14:08.610,91660,219439,169362,2284,0.6993037,2830,0.86647525
2023-11-30 18:14:08.610,91661,219421,169354,8340,2.5534995,2927,0.896174225
2023-11-30 18:14:08.610,91662,219465,169375,551,0.168702425,2940,0.9001545
2023-11-30 18:14:08.610,91663,219446,169370,-1559,-0.477326825,2798,0.85667765
2023-11-30 18:14:08.610,91664,219470,169359,7982,2.44388885,2816,0.8621888
2023-11-30 18:14:08.610,91665,219485,169366,4224,1.2932832,2847,0.871680225
2023-11-30 18:14:08.638,91666,219492,169372,-3684,-1.1279487,2667,0.816568725
2023-11-30 18:14:08.638,91667,219519,169390,5796,1.7745903,2570,0.78686975
2023-11-30 18:14:08.638,91668,219504,169382,7224,2.2118082,2622,0.80279085
2023-11-30 18:14:08.672,91669,219531,169388,-2819,-0.863107325,2541,0.777990675
2023-11-30 18:14:08.672,91670,219551,169386,2040,0.624597,2454,0.75135345
2023-11-30 18:14:08.672,91671,219549,169383,8426,2.57983055,2593,0.793911775
2023-11-30 18:14:08.672,91672,219549,169387,568,0.1739074,2983,0.913320025
2023-11-30 18:14:08.672,91673,219576,169401,-1949,-0.596735075,2641,0.808608175
2023-11-30 18:14:08.672,91674,219591,169401,7832,2.3979626,2787,0.853309725
2023-11-30 18:14:08.703,91675,219607,169406,4408,1.3496194,3238,0.99139465
2023-11-30 18:14:08.703,91676,219607,169403,-3896,-1.1928578,2819,0.863107325
2023-11-30 18:14:08.703,91677,219637,169399,5383,1.648140025,2763,0.845961525
2023-11-30 18:14:08.703,91678,219634,169423,6938,2.12424215,3084,0.9442437
2023-11-30 18:14:08.703,91679,219678,169418,-2725,-0.834326875,3099,0.948836325
2023-11-30 18:14:08.703,91680,219681,169433,1477,0.452220475,3041,0.931078175
2023-11-30 18:14:08.734,91681,219667,169425,8226,2.51859555,3148,0.9638389
2023-11-30 18:14:08.734,91682,219700,169429,693,0.212179275,3149,0.964145075
2023-11-30 18:14:08.734,91683,219729,169447,-2248,-0.6882814,2956,0.9050533
2023-11-30 18:14:08.734,91684,219722,169436,7487,2.292332225,2931,0.897398925
2023-11-30 18:14:08.734,91685,219713,169432,4274,1.30859195,2967,0.908421225
2023-11-30 18:14:08.734,91686,219703,169423,-4088,-1.2516434,2814,0.86157645
2023-11-30 18:14:08.734,91687,219641,169390,5097,1.560573975,2761,0.845349175
2023-11-30 18:14:08.734,91688,219547,169348,6868,2.1028099,2885,0.883314875
2023-11-30 18:14:08.764,91689,219422,169307,-2763,-0.845961525,2851,0.872904925
2023-11-30 18:14:08.764,91690,219231,169227,1013,0.310155275,2747,0.841062725
2023-11-30 18:14:08.764,91691,219019,169128,8183,2.505430025,2835,0.868006125
2023-11-30 18:14:08.764,91692,218733,169010,831,0.254431425,2854,0.87382345
2023-11-30 18:14:08.764,91693,218357,168843,-2700,-0.8266725,2705,0.828203375
2023-11-30 18:14:08.764,91694,217934,168689,7142,2.18670185,2733,0.836776275
2023-11-30 18:14:08.764,91695,217495,168515,4326,1.32451305,2820,0.8634135
2023-11-30 18:14:08.795,91696,217063,168368,-4082,-1.24980635,2699,0.826366325
2023-11-30 18:14:08.795,91697,216689,168242,4260,1.3043055,2644,0.8095267
2023-11-30 18:14:08.795,91698,216347,168104,6151,1.883282425,2745,0.840450375
2023-11-30 18:14:08.795,91699,216074,168039,-2859,-0.875354325,2682,0.82116135
2023-11-30 18:14:08.795,91700,215859,167957,330,0.10103775,2554,0.78197095
2023-11-30 18:14:08.825,91701,215668,167913,7527,2.304579225,2636,0.8070773
2023-11-30 18:14:08.825,91702,215539,167875,779,0.238510325,2662,0.81503785
2023-11-30 18:14:08.825,91703,215458,167846,-3062,-0.93750785,2514,0.76972395
2023-11-30 18:14:08.825,91704,215368,167805,6818,2.08750115,2535,0.776153625
2023-11-30 18:14:08.825,91705,215346,167812,4711,1.442390425,2617,0.801259975
2023-11-30 18:14:08.825,91706,215366,167819,-4126,-1.26327805,2492,0.7629881
2023-11-30 18:14:08.825,91707,215394,167832,4134,1.26572745,2430,0.74400525
2023-11-30 18:14:08.867,91708,215448,167856,7156,2.1909883,2540,0.7776845
2023-11-30 18:14:08.867,91709,215526,167889,-1916,-0.5866313,2501,0.765743675
2023-11-30 18:14:08.867,91710,215596,167905,503,0.154006025,2382,0.72930885
2023-11-30 18:14:08.867,91711,215685,167947,8006,2.45123705,2461,0.753496675
2023-11-30 18:14:08.867,91712,215797,167979,1890,0.57867075,2489,0.762069575
2023-11-30 18:14:08.867,91713,215885,168007,-2667,-0.816568725,2340,0.7164495
2023-11-30 18:14:08.898,91714,215982,168067,7141,2.186395675,2342,0.71706185
2023-11-30 18:14:08.898,91715,216089,168096,5411,1.656712925,2399,0.734513825
2023-11-30 18:14:08.898,91716,216182,168127,-3671,-1.123968425,2254,0.69011845
2023-11-30 18:14:08.898,91717,216262,168154,4348,1.3312489,2168,0.6637874
2023-11-30 18:14:08.898,91718,216352,168202,7713,2.361527775,2250,0.68889375
2023-11-30 18:14:08.898,91719,216403,168211,-1526,-0.46722305,2182,0.66807385
2023-11-30 18:14:08.898,91720,216456,168226,361,0.110529175,2030,0.62153525
2023-11-30 18:14:08.928,91721,216483,168247,8090,2.47695575,2092,0.6405181
2023-11-30 18:14:08.928,91722,216538,168253,2194,0.67174795,2133,0.653071275
2023-11-30 18:14:08.928,91723,216557,168269,-2806,-0.85912705,2004,0.6135747
2023-11-30 18:14:08.928,91724,216587,168263,6873,2.104340775,2031,0.621841425
2023-11-30 18:14:08.928,91725,216590,168284,5684,1.7402987,2155,0.659807125
2023-11-30 18:14:08.928,91726,216600,168280,-3513,-1.075592775,2107,0.645110725
2023-11-30 18:14:08.928,91727,216603,168276,3999,1.224393825,2107,0.645110725
2023-11-30 18:14:08.960,91728,216618,168281,7436,2.2767173,2282,0.69869135
2023-11-30 18:14:08.960,91729,216615,168293,-1317,-0.403232475,2329,0.713081575
2023-11-30 18:14:08.960,91730,216624,168277,-5,-0.001530875,2287,0.700222225
2023-11-30 18:14:08.960,91731,216655,168296,7354,2.25161095,2442,0.74767935
2023-11-30 18:14:08.960,91732,216671,168308,2242,0.68644435,2559,0.783501825
2023-11-30 18:14:08.960,91733,216730,168326,-2940,-0.9001545,2479,0.759007825
2023-11-30 18:14:08.990,91734,216767,168345,6573,2.012488275,2536,0.7764598
2023-11-30 18:14:08.990,91735,216827,168361,5632,1.7243776,2687,0.822692225
2023-11-30 18:14:08.990,91736,216904,168383,-3434,-1.05140495,2642,0.80891435
2023-11-30 18:14:08.990,91737,216960,168415,3701,1.133153675,2614,0.80034145
2023-11-30 18:14:08.990,91738,217070,168444,7248,2.2191564,2756,0.8438183
2023-11-30 18:14:08.990,91739,217147,168482,-1007,-0.308318225,2765,0.846573875
2023-11-30 18:14:08.990,91740,217215,168521,-65,-0.019901375,2659,0.814119325
2023-11-30 18:14:08.990,91741,217296,168551,7876,2.4114343,2738,0.83830715
2023-11-30 18:14:09.021,91742,217393,168564,2717,0.831877475,2799,0.856983825
2023-11-30 18:14:09.021,91743,217452,168589,-3165,-0.969043875,2674,0.81871195
2023-11-30 18:14:09.021,91744,217503,168610,6732,2.0611701,2686,0.82238605
2023-11-30 18:14:09.021,91745,217553,168629,5823,1.782857025,2793,0.855146775
2023-11-30 18:14:09.021,91746,217605,168649,-3391,-1.038239425,2706,0.82850955
2023-11-30 18:14:09.021,91747,217633,168662,3446,1.05507905,2626,0.80401555
2023-11-30 18:14:09.047,91748,217632,168666,7554,2.31284595,2712,0.8303466
2023-11-30 18:14:09.047,91749,217669,168688,-881,-0.269740175,2676,0.8193243
2023-11-30 18:14:09.047,91750,217667,168670,-390,-0.11940825,2535,0.776153625
2023-11-30 18:14:09.047,91751,217678,168683,8012,2.4530741,2592,0.7936056
2023-11-30 18:14:09.047,91752,217711,168695,2743,0.839838025,2647,0.810445225
2023-11-30 18:14:09.087,91753,217709,168692,-3265,-0.999661375,2518,0.77094865
2023-11-30 18:14:09.087,91754,217736,168683,6775,2.074335625,2517,0.770642475
2023-11-30 18:14:09.087,91755,217754,168708,6335,1.939618625,2618,0.80156615
2023-11-30 18:14:09.087,91756,217756,168710,-3093,-0.946999275,2539,0.777378325
2023-11-30 18:14:09.087,91757,217769,168710,3503,1.072531025,2469,0.755946075
2023-11-30 18:14:09.087,91758,217799,168709,8192,2.5081856,2586,0.79176855
2023-11-30 18:14:09.113,91759,217802,168712,-319,-0.097669825,2608,0.7985044
2023-11-30 18:14:09.113,91760,217831,168730,-541,-0.165640675,2515,0.770030125
2023-11-30 18:14:09.113,91761,217844,168729,8231,2.520126425,2612,0.7997291
2023-11-30 18:14:09.113,91762,217875,168737,3504,1.0728372,2706,0.82850955
2023-11-30 18:14:09.113,91763,217892,168745,-3089,-0.945774575,2602,0.79666735
2023-11-30 18:14:09.113,91764,217928,168751,6436,1.9705423,2606,0.79789205
2023-11-30 18:14:09.144,91765,217943,168755,6119,1.873484825,2716,0.8315713
2023-11-30 18:14:09.144,91766,217953,168763,-3094,-0.94730545,2646,0.81013905
2023-11-30 18:14:09.144,91767,218006,168779,2943,0.901073025,2575,0.788400625
2023-11-30 18:14:09.144,91768,218029,168782,7696,2.3563228,2690,0.82361075
2023-11-30 18:14:09.144,91769,218075,168803,-270,-0.08266725,2700,0.8266725
2023-11-30 18:14:09.175,91770,218116,168808,-768,-0.2351424,2583,0.790850025
2023-11-30 18:14:09.175,91771,218145,168831,8082,2.47450635,2660,0.8144255
2023-11-30 18:14:09.175,91772,218202,168852,3729,1.141726575,2748,0.8413689
2023-11-30 18:14:09.175,91773,218258,168855,-3305,-1.011908375,2644,0.8095267
2023-11-30 18:14:09.175,91774,218296,168861,6184,1.8933862,2660,0.8144255
2023-11-30 18:14:09.175,91775,218344,168901,6715,2.055965125,2807,0.859433225
2023-11-30 18:14:09.205,91776,218397,168906,-2764,-0.8462677,2782,0.85177885
2023-11-30 18:14:09.205,91777,218429,168926,2659,0.814119325,2741,0.839225675
2023-11-30 18:14:09.205,91778,218475,168936,8364,2.5608477,2882,0.88239635
2023-11-30 18:14:09.205,91779,218501,168949,414,0.12675645,2921,0.894337175
2023-11-30 18:14:09.205,91780,218546,168971,-1324,-0.4053757,2826,0.86525055
2023-11-30 18:14:09.205,91781,218570,168977,7981,2.443582675,2910,0.89096925
2023-11-30 18:14:09.236,91782,218611,168998,4044,1.2381717,2994,0.91668795
2023-11-30 18:14:09.236,91783,218638,168999,-3525,-1.079266875,2871,0.879028425
2023-11-30 18:14:09.236,91784,218629,169003,5825,1.783469375,2847,0.871680225
2023-11-30 18:14:09.236,91785,218681,169015,7044,2.1566967,2938,0.89954215
2023-11-30 18:14:09.266,91786,218714,169016,-2920,-0.894031,2845,0.871067875
2023-11-30 18:14:09.266,91787,218714,169009,2153,0.659194775,2733,0.836776275
2023-11-30 18:14:09.266,91788,218739,169025,8245,2.524412875,2824,0.8646382
2023-11-30 18:14:09.266,91789,218755,169033,415,0.127062625,2835,0.868006125
2023-11-30 18:14:09.266,91790,218758,169032,-1724,-0.5278457,2707,0.828815725
2023-11-30 18:14:09.266,91791,218787,169031,7628,2.3355029,2764,0.8462677
2023-11-30 18:14:09.266,91792,218777,169045,4276,1.3092043,2854,0.87382345
2023-11-30 18:14:09.297,91793,218808,169043,-3581,-1.096412675,2752,0.8425936
2023-11-30 18:14:09.297,91794,218816,169050,5629,1.723459075,2745,0.840450375
2023-11-30 18:14:09.297,91795,218830,169053,7131,2.183333925,2878,0.88117165
2023-11-30 18:14:09.297,91796,218836,169054,-2804,-0.8585147,2854,0.87382345
2023-11-30 18:14:09.297,91797,218866,169072,1961,0.600409175,2794,0.85545295
2023-11-30 18:14:09.297,91798,218873,169054,8529,2.611366575,2920,0.894031
2023-11-30 18:14:09.328,91799,218885,169074,648,0.1984014,2958,0.90566565
2023-11-30 18:14:09.328,91800,218897,169060,-1999,-0.612043825,2831,0.866781425
2023-11-30 18:14:09.328,91801,218917,169081,7803,2.389083525,2871,0.879028425
2023-11-30 18:14:09.328,91802,218936,169085,4355,1.333392125,2949,0.902910075
2023-11-30 18:14:09.358,91803,218923,169090,-3870,-1.18489725,2825,0.864944375
2023-11-30 18:14:09.358,91804,218943,169090,5510,1.68702425,2786,0.85300355
2023-11-30 18:14:09.358,91805,218977,169094,7224,2.2118082,2897,0.886988975
2023-11-30 18:14:09.358,91806,218984,169100,-2600,-0.796055,2842,0.87014935
2023-11-30 18:14:09.358,91807,218975,169104,1612,0.4935541,2728,0.8352454
2023-11-30 18:14:09.358,91808,218989,169091,8684,2.6588237,2806,0.85912705
2023-11-30 18:14:09.358,91809,219009,169096,953,0.291784775,2818,0.86280115
2023-11-30 18:14:09.390,91810,219014,169115,-2122,-0.64970335,2674,0.81871195
2023-11-30 18:14:09.390,91811,219024,169115,7686,2.35326105,2714,0.83095895
2023-11-30 18:14:09.390,91812,219048,169109,4462,1.36615285,2811,0.860657925
2023-11-30 18:14:09.390,91813,219044,169119,-4018,-1.23021115,2705,0.828203375
2023-11-30 18:14:09.390,91814,219068,169127,5338,1.63436215,2678,0.81993665
2023-11-30 18:14:09.390,91815,219084,169118,7327,2.243344225,2810,0.86035175
2023-11-30 18:14:09.420,91816,219090,169135,-2380,-0.7286965,2774,0.84932945
2023-11-30 18:14:09.420,91817,219110,169128,1425,0.436299375,2671,0.817793425
2023-11-30 18:14:09.420,91818,219108,169137,8503,2.603406025,2774,0.84932945
2023-11-30 18:14:09.420,91819,219140,169147,1064,0.3257702,2820,0.8634135
2023-11-30 18:14:09.420,91820,219121,169136,-2400,-0.73482,2694,0.82483545
2023-11-30 18:14:09.420,91821,219136,169139,7604,2.3281547,2735,0.837388625
2023-11-30 18:14:09.420,91822,219137,169141,4856,1.4867858,2832,0.8670876
2023-11-30 18:14:09.451,91823,219152,169137,-3725,-1.140501875,2721,0.833102175
2023-11-30 18:14:09.451,91824,219178,169134,4991,1.528119425,2680,0.820549
2023-11-30 18:14:09.451,91825,219185,169156,7041,2.155778175,2809,0.860045575
2023-11-30 18:14:09.451,91826,219201,169157,-2508,-0.7678869,2779,0.850860325
2023-11-30 18:14:09.451,91827,219203,169150,384,0.1175712,2679,0.820242825
2023-11-30 18:14:09.451,91828,219215,169151,7302,2.23568985,2782,0.85177885
2023-11-30 18:14:09.451,91829,219237,169164,339,0.103793325,2823,0.864332025
2023-11-30 18:14:09.482,91830,219256,169162,-3752,-1.1487686,2685,0.822079875
2023-11-30 18:14:09.482,91831,219270,169169,5955,1.823272125,2717,0.831877475
2023-11-30 18:14:09.482,91832,219283,169175,4184,1.2810362,2817,0.862494975
2023-11-30 18:14:09.482,91833,219285,169171,-3637,-1.113558475,2715,0.831265125
2023-11-30 18:14:09.482,91834,219305,169178,4980,1.5247515,2678,0.81993665
2023-11-30 18:14:09.482,91835,219336,169187,7551,2.311927425,2809,0.860045575
2023-11-30 18:14:09.513,91836,219331,169186,-1429,-0.437524075,2777,0.850247975
2023-11-30 18:14:09.513,91837,219349,169199,749,0.229325075,2659,0.814119325
2023-11-30 18:14:09.513,91838,219359,169187,8181,2.504817675,2744,0.8401442
2023-11-30 18:14:09.513,91839,219358,169197,1846,0.56519905,2786,0.85300355
2023-11-30 18:14:09.513,91840,219383,169188,-2680,-0.820549,2658,0.81381315
2023-11-30 18:14:09.513,91841,219364,169188,7128,2.1824154,2696,0.8254478
2023-11-30 18:14:09.513,91842,219376,169187,5404,1.6545697,2800,0.85729
2023-11-30 18:14:09.543,91843,219382,169198,-3729,-1.141726575,2689,0.823304575
2023-11-30 18:14:09.543,91844,219389,169186,4125,1.262971875,2610,0.79911675
2023-11-30 18:14:09.543,91845,219415,169194,7341,2.247630675,2671,0.817793425
2023-11-30 18:14:09.543,91846,219433,169192,-1768,-0.5413174,2556,0.7825833
2023-11-30 18:14:09.543,91847,219425,169206,102,0.03122985,2227,0.681851725
2023-11-30 18:14:09.543,91848,219445,169200,7863,2.407454025,2216,0.6784838
2023-11-30 18:14:09.574,91849,219444,169206,1834,0.56152495,2253,0.689812275
2023-11-30 18:14:09.574,91850,219459,169198,-3291,-1.007621925,2053,0.628577275
2023-11-30 18:14:09.574,91851,219472,169204,6559,2.008201825,2052,0.6282711
2023-11-30 18:14:09.574,91852,219482,169201,5354,1.63926095,2413,0.738800275
2023-11-30 18:14:09.574,91853,219503,169213,-3812,-1.1671391,2100,0.6429675
2023-11-30 18:14:09.574,91854,219511,169215,3767,1.153361225,2096,0.6417428
2023-11-30 18:14:09.574,91855,219527,169217,7310,2.23813925,2551,0.781052425
2023-11-30 18:14:09.574,91856,219534,169230,-1600,-0.48988,2635,0.806771125
2023-11-30 18:14:09.574,91857,219547,169233,-353,-0.108079775,2190,0.67052325
2023-11-30 18:14:09.605,91858,219562,169211,7728,2.3661204,2492,0.7629881
2023-11-30 18:14:09.605,91859,219552,169229,2258,0.69134315,2656,0.8132008
2023-11-30 18:14:09.605,91860,219594,169247,-3208,-0.9822094,2628,0.8046279
2023-11-30 18:14:09.605,91861,219603,169244,6430,1.96870525,2710,0.82973425
2023-11-30 18:14:09.605,91862,219612,169246,5469,1.674471075,2842,0.87014935
2023-11-30 18:14:09.605,91863,219623,169258,-3911,-1.197450425,2748,0.8413689
2023-11-30 18:14:09.605,91864,219642,169253,3498,1.07100015,2648,0.8107514
2023-11-30 18:14:09.646,91865,219628,169246,7638,2.33856465,2705,0.828203375
2023-11-30 18:14:09.646,91866,219620,169245,-1454,-0.44517845,2633,0.806158775
2023-11-30 18:14:09.646,91867,219585,169224,-586,-0.17941855,2464,0.7544152
2023-11-30 18:14:09.646,91868,219527,169200,7750,2.37285625,2510,0.76849925
2023-11-30 18:14:09.646,91869,219407,169161,2393,0.732676775,2557,0.782889475
2023-11-30 18:14:09.646,91870,219248,169078,-3626,-1.11019055,2422,0.74155585
2023-11-30 18:14:09.646,91871,219040,168993,6081,1.861850175,2416,0.7397188
2023-11-30 18:14:09.646,91872,218801,168898,5331,1.632218925,2502,0.76604985
2023-11-30 18:14:09.646,91873,218475,168759,-3885,-1.189489875,2397,0.733901475
2023-11-30 18:14:09.677,91874,218067,168598,2882,0.88239635,2314,0.70848895
2023-11-30 18:14:09.677,91875,217623,168422,6805,2.083520875,2422,0.74155585
2023-11-30 18:14:09.677,91876,217144,168245,-1631,-0.499371425,2425,0.742474375
2023-11-30 18:14:09.677,91877,216694,168084,-1356,-0.4151733,2318,0.70971365
2023-11-30 18:14:09.677,91878,216293,167941,6620,2.0268785,2400,0.73482
2023-11-30 18:14:09.677,91879,215948,167821,1722,0.52723335,2469,0.755946075
2023-11-30 18:14:09.677,91880,215682,167723,-4191,-1.283179425,2341,0.716755675
2023-11-30 18:14:09.677,91881,215442,167676,4701,1.439328675,2346,0.71828655
2023-11-30 18:14:09.677,91882,215285,167599,4304,1.3177772,2466,0.75502755
2023-11-30 18:14:09.708,91883,215151,167580,-4298,-1.31594015,2399,0.734513825
2023-11-30 18:14:09.708,91884,215076,167553,1809,0.553870575,2328,0.7127754
2023-11-30 18:14:09.708,91885,215042,167535,5895,1.804901625,2441,0.747373175
2023-11-30 18:14:09.708,91886,215055,167548,-1381,-0.422827675,2442,0.74767935
2023-11-30 18:14:09.708,91887,215074,167539,-1511,-0.462630425,2314,0.70848895
2023-11-30 18:14:09.738,91888,215133,167571,6716,2.0562713,2371,0.725940925
2023-11-30 18:14:09.738,91889,215220,167607,2596,0.7948303,2425,0.742474375
2023-11-30 18:14:09.738,91890,215322,167644,-3607,-1.104373225,2285,0.699609875
2023-11-30 18:14:09.738,91891,215448,167683,5783,1.770610025,2260,0.6919555
2023-11-30 18:14:09.769,91892,215544,167727,5787,1.771834725,2335,0.714918625
2023-11-30 18:14:09.769,91893,215681,167780,-3419,-1.046812325,2214,0.67787145
2023-11-30 18:14:09.769,91894,215786,167815,2690,0.82361075,2086,0.63868105
2023-11-30 18:14:09.769,91895,215890,167861,7701,2.357853675,2135,0.653683625
2023-11-30 18:14:09.769,91896,216000,167909,-337,-0.103180975,2070,0.63378225
2023-11-30 18:14:09.769,91897,216109,167931,-1197,-0.366491475,1869,0.572241075
2023-11-30 18:14:09.799,91898,216200,167973,7811,2.391532925,1844,0.5645867
2023-11-30 18:14:09.799,91899,216293,167992,3746,1.14693155,1823,0.558157025
2023-11-30 18:14:09.799,91900,216352,168025,-3460,-1.0593655,1622,0.49661585
2023-11-30 18:14:09.799,91901,216383,168045,5971,1.828170925,1538,0.47089715
2023-11-30 18:14:09.799,91902,216439,168058,6617,2.025959975,1570,0.48069475
2023-11-30 18:14:09.799,91903,216468,168068,-2771,-0.848410925,1446,0.44272905
2023-11-30 18:14:09.830,91904,216502,168070,2610,0.79911675,1334,0.40843745
2023-11-30 18:14:09.830,91905,216512,168062,8029,2.458279075,1427,0.436911725
2023-11-30 18:14:09.830,91906,216512,168086,288,0.0881784,1457,0.446096975
2023-11-30 18:14:09.830,91907,216472,168075,-1378,-0.42190915,1384,0.4237462
2023-11-30 18:14:09.861,91908,216478,168072,7699,2.357241325,1512,0.4629366
2023-11-30 18:14:09.861,91909,216481,168078,3902,1.19469485,1678,0.51376165
2023-11-30 18:14:09.861,91910,216456,168065,-3679,-1.126417825,1669,0.511006075
2023-11-30 18:14:09.861,91911,216444,168051,5750,1.76050625,1764,0.5400927
2023-11-30 18:14:09.861,91912,216436,168047,6716,2.0562713,1992,0.6099006
2023-11-30 18:14:09.861,91913,216435,168057,-2872,-0.8793346,2058,0.63010815
2023-11-30 18:14:09.892,91914,216442,168062,1894,0.57989545,2087,0.638987225
2023-11-30 18:14:09.892,91915,216464,168076,7584,2.3220312,2291,0.701446925
2023-11-30 18:14:09.892,91916,216540,168097,378,0.11573415,2407,0.736963225
2023-11-30 18:14:09.892,91917,216575,168114,-1724,-0.5278457,2367,0.724716225
2023-11-30 18:14:09.892,91918,216659,168128,7206,2.20629705,2485,0.760844875
2023-11-30 18:14:09.892,91919,216710,168163,3889,1.190714575,2621,0.802484675
2023-11-30 18:14:09.922,91920,216790,168190,-3710,-1.13590925,2560,0.783808
2023-11-30 18:14:09.922,91921,216876,168216,5313,1.626707775,2586,0.79176855
2023-11-30 18:14:09.922,91922,216952,168252,6738,2.06300715,2737,0.838000975
2023-11-30 18:14:09.922,91923,217029,168273,-2666,-0.81626255,2715,0.831265125
2023-11-30 18:14:09.922,91924,217072,168315,1896,0.5805078,2651,0.811669925
2023-11-30 18:14:09.922,91925,217147,168325,7560,2.314683,2774,0.84932945
2023-11-30 18:14:09.922,91926,217200,168346,538,0.16472215,2811,0.860657925
2023-11-30 18:14:09.953,91927,217245,168362,-1896,-0.5805078,2684,0.8217737
2023-11-30 18:14:09.953,91928,217304,168373,7197,2.203541475,2725,0.834326875
2023-11-30 18:14:09.953,91929,217325,168391,4238,1.29756965,2806,0.85912705
2023-11-30 18:14:09.953,91930,217343,168383,-3592,-1.0997806,2685,0.822079875
2023-11-30 18:14:09.953,91931,217377,168399,5288,1.6190534,2638,0.80768965
2023-11-30 18:14:09.953,91932,217368,168402,6786,2.07770355,2728,0.8352454
2023-11-30 18:14:09.953,91933,217388,168415,-2396,-0.7335953,2658,0.81381315
2023-11-30 18:14:09.984,91934,217400,168429,1633,0.499983775,2538,0.77707215
2023-11-30 18:14:09.984,91935,217386,168417,7977,2.442357975,2606,0.79789205
2023-11-30 18:14:09.984,91936,217408,168412,1037,0.317503475,2607,0.798198225
2023-11-30 18:14:09.984,91937,217441,168423,-1951,-0.597347425,2458,0.75257815
2023-11-30 18:14:10.014,91938,217444,168435,7358,2.25283565,2491,0.762681925
2023-11-30 18:14:10.014,91939,217466,168427,4420,1.3532935,2578,0.78931915
2023-11-30 18:14:10.014,91940,217455,168423,-3525,-1.079266875,2470,0.75625225
2023-11-30 18:14:10.014,91941,217492,168446,5287,1.618747225,2437,0.746148475
2023-11-30 18:14:10.014,91942,217496,168433,6736,2.0623948,2552,0.7813586
2023-11-30 18:14:10.014,91943,217528,168453,-2275,-0.696548125,2514,0.76972395
2023-11-30 18:14:10.014,91944,217551,168456,1285,0.393434875,2418,0.74033115
2023-11-30 18:14:10.045,91945,217586,168474,7880,2.412659,2517,0.770642475
2023-11-30 18:14:10.045,91946,217604,168468,1210,0.37047175,2563,0.784726525
2023-11-30 18:14:10.045,91947,217640,168476,-2135,-0.653683625,2453,0.751047275
2023-11-30 18:14:10.045,91948,217658,168496,7165,2.193743875,2506,0.76727455
2023-11-30 18:14:10.045,91949,217685,168498,4662,1.42738785,2612,0.7997291
2023-11-30 18:14:10.045,91950,217716,168516,-3447,-1.055385225,2521,0.771867175
2023-11-30 18:14:10.076,91951,217759,168519,4923,1.507299525,2495,0.763906625
2023-11-30 18:14:10.076,91952,217789,168542,6909,2.115363075,2625,0.803709375
2023-11-30 18:14:10.076,91953,217816,168565,-1830,-0.56030025,2610,0.79911675
2023-11-30 18:14:10.076,91954,217858,168570,1305,0.399558375,2528,0.7740104
2023-11-30 18:14:10.076,91955,217890,168581,7870,2.40959725,2636,0.8070773
2023-11-30 18:14:10.076,91956,217962,168600,1397,0.427726475,2693,0.824529275
2023-11-30 18:14:10.076,91957,217973,168618,-2335,-0.714918625,2587,0.792074725
2023-11-30 18:14:10.076,91958,218032,168626,7337,2.246405975,2640,0.808302
2023-11-30 18:14:10.076,91959,218077,168646,5157,1.578944475,2746,0.84075655
2023-11-30 18:14:10.107,91960,218114,168665,-3603,-1.103148525,2648,0.8107514
2023-11-30 18:14:10.107,91961,218113,168681,4606,1.41024205,2601,0.796361175
2023-11-30 18:14:10.107,91962,218159,168697,7345,2.248855375,2709,0.829428075
2023-11-30 18:14:10.107,91963,218220,168711,-1575,-0.482225625,2675,0.819018125
2023-11-30 18:14:10.107,91964,218254,168719,908,0.2780069,2567,0.785951225
2023-11-30 18:14:10.107,91965,218271,168726,8271,2.532373425,2652,0.8119761
2023-11-30 18:14:10.107,91966,218289,168726,2136,0.6539898,2695,0.825141625
2023-11-30 18:14:10.137,91967,218313,168732,-2476,-0.7580893,2574,0.78809445
2023-11-30 18:14:10.137,91968,218343,168750,7175,2.196805625,2605,0.797585875
2023-11-30 18:14:10.137,91969,218366,168748,5457,1.670796975,2701,0.826978675
2023-11-30 18:14:10.137,91970,218424,168759,-3517,-1.076817475,2614,0.80034145
2023-11-30 18:14:10.137,91971,218421,168768,4378,1.34043415,2584,0.7911562
2023-11-30 18:14:10.178,91972,218457,168776,7459,2.283759325,2714,0.83095895
2023-11-30 18:14:10.178,91973,218465,168799,-1446,-0.44272905,2699,0.826366325
2023-11-30 18:14:10.178,91974,218477,168782,370,0.11328475,2598,0.79544265
2023-11-30 18:14:10.178,91975,218502,168793,7784,2.3832662,2696,0.8254478
2023-11-30 18:14:10.209,91976,218505,168800,2048,0.6270464,2762,0.84565535
2023-11-30 18:14:10.209,91977,218521,168812,-2887,-0.883927225,2650,0.81136375
2023-11-30 18:14:10.209,91978,218538,168819,6388,1.9558459,2678,0.81993665
2023-11-30 18:14:10.209,91979,218571,168806,5058,1.54863315,2785,0.852697375
2023-11-30 18:14:10.209,91980,218581,168826,-3501,-1.071918675,2709,0.829428075
2023-11-30 18:14:10.209,91981,218575,168832,3823,1.170507025,2671,0.817793425
2023-11-30 18:14:10.239,91982,218621,168832,6818,2.08750115,2798,0.85667765
2023-11-30 18:14:10.239,91983,218602,168826,-1386,-0.42435855,2800,0.85729
2023-11-30 18:14:10.239,91984,218636,168845,0,0,2711,0.830040425
2023-11-30 18:14:10.239,91985,218652,168844,7249,2.219462575,2812,0.8609641
2023-11-30 18:14:10.239,91986,218645,168841,2129,0.651846575,2882,0.88239635
2023-11-30 18:14:10.239,91987,218687,168849,-2977,-0.911482975,2767,0.847186225
2023-11-30 18:14:10.268,91988,218676,168866,6121,1.874097175,2791,0.854534425
2023-11-30 18:14:10.268,91989,218701,168867,5214,1.59639645,2900,0.8879075
2023-11-30 18:14:10.268,91990,218706,168873,-3416,-1.0458938,2815,0.861882625
2023-11-30 18:14:10.268,91991,218722,168875,3504,1.0728372,2746,0.84075655
2023-11-30 18:14:10.268,91992,218735,168878,6877,2.105565475,2841,0.869843175
2023-11-30 18:14:10.268,91993,218757,168892,-1138,-0.34842715,2808,0.8597394
2023-11-30 18:14:10.268,91994,218770,168881,-325,-0.099506875,2666,0.81626255
2023-11-30 18:14:10.301,91995,218800,168895,7098,2.17323015,2706,0.82850955
2023-11-30 18:14:10.301,91996,218763,168879,2567,0.785951225,2720,0.832796
2023-11-30 18:14:10.301,91997,218815,168902,-2884,-0.8830087,2554,0.78197095
2023-11-30 18:14:10.301,91998,218819,168904,5902,1.80704485,2527,0.773704225
2023-11-30 18:14:10.301,91999,218841,168912,5347,1.637117725,2595,0.794524125
2023-11-30 18:14:10.301,92000,218872,168910,-3163,-0.968431525,2485,0.760844875
2023-11-30 18:14:10.301,92001,218864,168920,3291,1.007621925,2397,0.733901475
2023-11-30 18:14:10.328,92002,218894,168930,6815,2.086582625,2480,0.759314
2023-11-30 18:14:10.328,92003,218880,168922,-757,-0.231774475,2449,0.749822575
2023-11-30 18:14:10.328,92004,218925,168933,-333,-0.101956275,2312,0.7078766
2023-11-30 18:14:10.328,92005,218929,168950,6928,2.1211804,2364,0.7237977
2023-11-30 18:14:10.328,92006,218953,168950,2809,0.860045575,2418,0.74033115
2023-11-30 18:14:10.363,92007,218973,168956,-2970,-0.90933975,2302,0.70481485
2023-11-30 18:14:10.363,92008,218967,168954,5948,1.8211289,2312,0.7078766
2023-11-30 18:14:10.363,92009,218993,168961,5653,1.730807275,2416,0.7397188
2023-11-30 18:14:10.363,92010,219014,168972,-2999,-0.918218825,2346,0.71828655
2023-11-30 18:14:10.363,92011,219042,168966,2929,0.896786575,2278,0.69746665
2023-11-30 18:14:10.363,92012,219054,168966,6874,2.10464695,2377,0.727777975
2023-11-30 18:14:10.363,92013,219065,168979,-826,-0.25290055,2379,0.728390325
2023-11-30 18:14:10.394,92014,219080,168979,-1190,-0.36434825,2275,0.696548125
2023-11-30 18:14:10.394,92015,219084,168986,6969,2.133733575,2349,0.719205075
2023-11-30 18:14:10.394,92016,219119,168992,2751,0.842287425,2422,0.74155585
2023-11-30 18:14:10.394,92017,219117,168980,-3156,-0.9662883,2320,0.710326
2023-11-30 18:14:10.394,92018,219129,169018,6515,1.994730125,2330,0.71338775
2023-11-30 18:14:10.394,92019,219145,168991,6966,2.13281505,2436,0.7458423
2023-11-30 18:14:10.424,92020,219137,168998,-2187,-0.669604725,2373,0.726553275
2023-11-30 18:14:10.424,92021,219168,168994,3502,1.07222485,2309,0.706958075
2023-11-30 18:14:10.424,92022,219172,169001,8131,2.489508925,2415,0.739412625
2023-11-30 18:14:10.424,92023,219175,169012,404,0.1236947,2430,0.74400525
2023-11-30 18:14:10.455,92024,219188,169014,-826,-0.25290055,2327,0.712469225
2023-11-30 18:14:10.455,92025,219207,169014,7735,2.368263625,2397,0.733901475
2023-11-30 18:14:10.455,92026,219210,169000,4141,1.267870675,2477,0.758395475
2023-11-30 18:14:10.455,92027,219215,169009,-3002,-0.91913735,2379,0.728390325
2023-11-30 18:14:10.455,92028,219230,169024,6013,1.841030275,2380,0.7286965
2023-11-30 18:14:10.455,92029,219245,169027,6552,2.0060586,2480,0.759314
2023-11-30 18:14:10.455,92030,219233,169009,-2536,-0.7764598,2412,0.7384941
2023-11-30 18:14:10.487,92031,219263,169019,2768,0.8474924,2319,0.710019825
2023-11-30 18:14:10.487,92032,219266,169036,7811,2.391532925,2394,0.73298295
2023-11-30 18:14:10.487,92033,219287,169045,207,0.063378225,2385,0.730227375
2023-11-30 18:14:10.487,92034,219302,169031,-1211,-0.370777925,2260,0.6919555
2023-11-30 18:14:10.487,92035,219302,169032,7614,2.33121645,2332,0.7140001
2023-11-30 18:14:10.487,92036,219315,169043,3739,1.144788325,2456,0.7519658
2023-11-30 18:14:10.518,92037,219349,169054,-3455,-1.057834625,2421,0.741249675
2023-11-30 18:14:10.518,92038,219391,169076,5772,1.7672421,2492,0.7629881
2023-11-30 18:14:10.518,92039,219435,169096,6356,1.9460483,2830,0.86647525
2023-11-30 18:14:10.518,92040,219451,169102,-2717,-0.831877475,2838,0.86892465
2023-11-30 18:14:10.518,92041,219481,169103,2212,0.6772591,2662,0.81503785
2023-11-30 18:14:10.518,92042,219483,169124,7529,2.305191575,2895,0.886376625
2023-11-30 18:14:10.518,92043,219521,169126,559,0.171151825,2991,0.915769425
2023-11-30 18:14:10.518,92044,219511,169125,-1451,-0.444259925,2947,0.902297725
2023-11-30 18:14:10.549,92045,219542,169136,6916,2.1175063,3058,0.93628315
2023-11-30 18:14:10.549,92046,219527,169133,3880,1.187959,3170,0.97057475
2023-11-30 18:14:10.549,92047,219543,169126,-3363,-1.029666525,3061,0.937201675
2023-11-30 18:14:10.549,92048,219565,169139,5177,1.585067975,3016,0.9234238
2023-11-30 18:14:10.549,92049,219564,169139,6252,1.9142061,3079,0.942712825
2023-11-30 18:14:10.549,92050,219553,169115,-2428,-0.7433929,2968,0.9087274
2023-11-30 18:14:10.549,92051,219546,169128,1985,0.607757375,2822,0.86402585
2023-11-30 18:14:10.580,92052,219552,169113,7536,2.3073348,2882,0.88239635
2023-11-30 18:14:10.580,92053,219471,169092,919,0.281374825,2885,0.883314875
2023-11-30 18:14:10.580,92054,219387,169053,-1591,-0.487124425,2743,0.839838025
2023-11-30 18:14:10.580,92055,219263,168986,6883,2.107402525,2772,0.8487171
2023-11-30 18:14:10.580,92056,219050,168925,4177,1.278892975,2835,0.868006125
2023-11-30 18:14:10.580,92057,218796,168788,-3307,-1.012520725,2700,0.8266725
2023-11-30 18:14:10.580,92058,218399,168637,4910,1.50331925,2641,0.808608175
2023-11-30 18:14:10.580,92059,217918,168432,6074,1.85970695,2720,0.832796
2023-11-30 18:14:10.580,92060,217368,168228,-2446,-0.74890405,2657,0.813506975
2023-11-30 18:14:10.610,92061,216837,168031,1151,0.352407425,2557,0.782889475
2023-11-30 18:14:10.610,92062,216318,167846,6601,2.021061175,2640,0.808302
2023-11-30 18:14:10.610,92063,215845,167683,421,0.128899675,2650,0.81136375
2023-11-30 18:14:10.610,92064,215438,167553,-2299,-0.703896325,2513,0.769417775
2023-11-30 18:14:10.610,92065,215068,167410,5883,1.801227525,2540,0.7776845
2023-11-30 18:14:10.610,92066,214771,167342,3487,1.067632225,2608,0.7985044
2023-11-30 18:14:10.610,92067,214528,167258,-4009,-1.227455575,2496,0.7642128
2023-11-30 18:14:10.641,92068,214357,167206,4047,1.239090225,2467,0.755333725
2023-11-30 18:14:10.641,92069,214219,167168,5996,1.8358253,2582,0.79054385
2023-11-30 18:14:10.641,92070,214121,167144,-2375,-0.727165625,2552,0.7813586
2023-11-30 18:14:10.641,92071,214052,167131,831,0.254431425,2464,0.7544152
2023-11-30 18:14:10.641,92072,214028,167110,6764,2.0709677,2554,0.78197095
2023-11-30 18:14:10.641,92073,214045,167139,1323,0.405069525,2595,0.794524125
2023-11-30 18:14:10.672,92074,214078,167149,-2075,-0.635313125,2487,0.761457225
2023-11-30 18:14:10.672,92075,214158,167180,6376,1.9521718,2526,0.77339805
2023-11-30 18:14:10.672,92076,214255,167225,4978,1.52413915,2607,0.798198225
2023-11-30 18:14:10.672,92077,214345,167257,-3030,-0.92771025,2499,0.765131325
2023-11-30 18:14:10.704,92078,214472,167306,4386,1.34288355,2441,0.747373175
2023-11-30 18:14:10.704,92079,214585,167338,6781,2.076172675,2505,0.766968375
2023-11-30 18:14:10.704,92080,214691,167372,-1236,-0.3784323,2415,0.739412625
2023-11-30 18:14:10.704,92081,214805,167435,1322,0.40476335,2254,0.69011845
2023-11-30 18:14:10.704,92082,214930,167466,7789,2.384797075,2264,0.6931802
2023-11-30 18:14:10.704,92083,215035,167498,2228,0.6821579,2225,0.681239375
2023-11-30 18:14:10.734,92084,215133,167524,-1838,-0.56274965,2034,0.62275995
2023-11-30 18:14:10.734,92085,215239,167558,7368,2.2558974,1997,0.611431475
2023-11-30 18:14:10.734,92086,215313,167587,5796,1.7745903,2031,0.621841425
2023-11-30 18:14:10.734,92087,215380,167610,-2898,-0.88729515,1905,0.583263375
2023-11-30 18:14:10.734,92088,215426,167629,5015,1.535467625,1841,0.563668175
2023-11-30 18:14:10.734,92089,215458,167635,7948,2.4334789,1935,0.592448625
2023-11-30 18:14:10.765,92090,215490,167660,-780,-0.2388165,1928,0.5903054
2023-11-30 18:14:10.765,92091,215494,167655,1413,0.432625275,1868,0.5719349
2023-11-30 18:14:10.765,92092,215518,167676,8535,2.613203625,1995,0.610819125
2023-11-30 18:14:10.765,92093,215532,167667,2742,0.83953185,2108,0.6454169
2023-11-30 18:14:10.765,92094,215526,167668,-2038,-0.62398465,2079,0.636537825
2023-11-30 18:14:10.765,92095,215520,167651,7491,2.293556925,2188,0.6699109
2023-11-30 18:14:10.765,92096,215522,167656,5843,1.788980525,2363,0.723491525
2023-11-30 18:14:10.765,92097,215512,167657,-3010,-0.92158675,2364,0.7237977
2023-11-30 18:14:10.795,92098,215528,167662,4631,1.417896425,2405,0.736350875
2023-11-30 18:14:10.795,92099,215564,167669,7674,2.34958695,2595,0.794524125
2023-11-30 18:14:10.795,92100,215602,167685,-880,-0.269434,2659,0.814119325
2023-11-30 18:14:10.795,92101,215635,167716,773,0.236673275,2631,0.805546425
2023-11-30 18:14:10.795,92102,215727,167723,8021,2.455829675,2782,0.85177885
2023-11-30 18:14:10.795,92103,215799,167762,2695,0.825141625,2914,0.89219395
2023-11-30 18:14:10.826,92104,215901,167791,-2220,-0.6797085,2867,0.877803725
2023-11-30 18:14:10.826,92105,215997,167816,6921,2.119037175,2944,0.9013792
2023-11-30 18:14:10.826,92106,216099,167874,5965,1.826333875,3107,0.951285725
2023-11-30 18:14:10.826,92107,216199,167918,-2848,-0.8719864,3090,0.94608075
2023-11-30 18:14:10.826,92108,216318,167917,4095,1.253786625,3092,0.9466931
2023-11-30 18:14:10.856,92109,216380,167952,7222,2.21119585,3252,0.9956811
2023-11-30 18:14:10.856,92110,216462,167998,-670,-0.20513725,3290,1.00731575
2023-11-30 18:14:10.856,92111,216532,168010,396,0.1212453,3224,0.9871082
2023-11-30 18:14:10.856,92112,216596,168041,7764,2.3771427,3330,1.01956275
2023-11-30 18:14:10.856,92113,216654,168056,2966,0.90811505,3400,1.040995
2023-11-30 18:14:10.856,92114,216690,168060,-2378,-0.72808415,3275,1.002723125
2023-11-30 18:14:10.856,92115,216728,168067,6880,2.106484,3276,1.0030293
2023-11-30 18:14:10.888,92116,216744,168088,6052,1.8529711,3364,1.0299727
2023-11-30 18:14:10.888,92117,216787,168101,-2735,-0.837388625,3265,0.999661375
2023-11-30 18:14:10.888,92118,216783,168107,3945,1.207860375,3181,0.973942675
2023-11-30 18:14:10.888,92119,216824,168121,7362,2.25406035,3259,0.997824325
2023-11-30 18:14:10.888,92120,216817,168112,-271,-0.082973425,3216,0.9846588
2023-11-30 18:14:10.888,92121,216864,168129,269,0.082361075,3072,0.9405696
2023-11-30 18:14:10.919,92122,216847,168114,7863,2.407454025,3117,0.954347475
2023-11-30 18:14:10.919,92123,216882,168125,3116,0.9540413,3156,0.9662883
2023-11-30 18:14:10.919,92124,216904,168143,-2623,-0.803097025,3023,0.925567025
2023-11-30 18:14:10.919,92125,216927,168147,6508,1.9925869,3018,0.92403615
2023-11-30 18:14:10.950,92126,216952,168148,6066,1.85725755,3103,0.950061025
2023-11-30 18:14:10.950,92127,216987,168170,-2786,-0.85300355,3010,0.92158675
2023-11-30 18:14:10.950,92128,217027,168172,3844,1.1769367,2929,0.896786575
2023-11-30 18:14:10.950,92129,217031,168181,7933,2.428886275,3018,0.92403615
2023-11-30 18:14:10.950,92130,217069,168186,-83,-0.025412525,3003,0.919443525
2023-11-30 18:14:10.950,92131,217116,168190,-53,-0.016227275,2886,0.88362105
2023-11-30 18:14:10.950,92132,217146,168202,8344,2.5547242,2956,0.9050533
2023-11-30 18:14:10.990,92133,217185,168217,3664,1.1218252,3029,0.927404075
2023-11-30 18:14:10.990,92134,217204,168231,-2731,-0.836163925,2920,0.894031
2023-11-30 18:14:10.990,92135,217251,168250,6876,2.1052593,2924,0.8952557
2023-11-30 18:14:10.990,92136,217316,168263,6480,1.984014,3027,0.926791725
2023-11-30 18:14:10.990,92137,217340,168290,-2314,-0.70848895,2964,0.9075027
2023-11-30 18:14:10.990,92138,217418,168292,3656,1.1193758,2907,0.890050725
2023-11-30 18:14:11.021,92139,217462,168314,7912,2.4224566,3021,0.924954675
2023-11-30 18:14:11.021,92140,217494,168345,222,0.06797085,3036,0.9295473
2023-11-30 18:14:11.021,92141,217558,168349,-354,-0.10838595,2932,0.8977051
2023-11-30 18:14:11.021,92142,217612,168376,7850,2.40347375,2998,0.91791265
2023-11-30 18:14:11.021,92143,217674,168382,3645,1.116007875,3059,0.936589325
2023-11-30 18:14:11.021,92144,217729,168413,-2907,-0.890050725,2932,0.8977051
2023-11-30 18:14:11.021,92145,217751,168429,6465,1.979421375,2919,0.893724825
2023-11-30 18:14:11.021,92146,217805,168453,6787,2.078009725,3026,0.92648555
2023-11-30 18:14:11.051,92147,217865,168472,-2322,-0.71093835,2975,0.910870625
2023-11-30 18:14:11.051,92148,217892,168488,3051,0.934139925,2920,0.894031
2023-11-30 18:14:11.051,92149,217961,168493,8322,2.54798835,3048,0.9332214
2023-11-30 18:14:11.051,92150,217995,168516,698,0.21371015,3086,0.94485605
2023-11-30 18:14:11.051,92151,218035,168515,-662,-0.20268785,2993,0.916381775
2023-11-30 18:14:11.051,92152,218060,168532,8249,2.525637575,3076,0.9417943
2023-11-30 18:14:11.051,92153,218092,168540,4454,1.36370345,3174,0.97179945
2023-11-30 18:14:11.082,92154,218117,168559,-2979,-0.912095325,3091,0.946386925
2023-11-30 18:14:11.082,92155,218132,168555,6083,1.862462525,3114,0.95342895
2023-11-30 18:14:11.082,92156,218176,168576,7097,2.172923975,3245,0.993537875
2023-11-30 18:14:11.082,92157,218193,168578,-2494,-0.76360045,3199,0.979453825
2023-11-30 18:14:11.082,92158,218224,168597,2502,0.76604985,3125,0.956796875
2023-11-30 18:14:11.112,92159,218249,168579,8385,2.567277375,3219,0.985577325
2023-11-30 18:14:11.112,92160,218277,168608,876,0.2682093,3212,0.9834341
2023-11-30 18:14:11.112,92161,218298,168617,-1208,-0.3698594,3067,0.939038725
2023-11-30 18:14:11.112,92162,218309,168603,7855,2.405004625,3107,0.951285725
2023-11-30 18:14:11.112,92163,218340,168616,4470,1.36860225,3178,0.97302415
2023-11-30 18:14:11.112,92164,218348,168624,-3222,-0.98649585,3065,0.938426375
2023-11-30 18:14:11.112,92165,218368,168639,5827,1.784081725,3045,0.932302875
2023-11-30 18:14:11.144,92166,218371,168652,7120,2.179966,3153,0.965369775
2023-11-30 18:14:11.144,92167,218385,168646,-2400,-0.73482,3106,0.95097955
2023-11-30 18:14:11.144,92168,218420,168656,2225,0.681239375,3030,0.92771025
2023-11-30 18:14:11.144,92169,218444,168654,8413,2.575850275,3144,0.9626142
2023-11-30 18:14:11.144,92170,218461,168672,796,0.2437153,3191,0.977004425
2023-11-30 18:14:11.144,92171,218455,168658,-1520,-0.465386,3096,0.9479178
2023-11-30 18:14:11.174,92172,218506,168673,7777,2.381122975,3168,0.9699624
2023-11-30 18:14:11.174,92173,218516,168683,4470,1.36860225,3268,1.0005799
2023-11-30 18:14:11.174,92174,218510,168687,-3642,-1.11508935,3163,0.968431525
2023-11-30 18:14:11.174,92175,218544,168697,5467,1.673858725,3129,0.958021575
2023-11-30 18:14:11.174,92176,218560,168693,7134,2.18425245,3231,0.989251425
2023-11-30 18:14:11.204,92177,218571,168715,-2274,-0.69624195,3171,0.970880925
2023-11-30 18:14:11.204,92178,218598,168721,1981,0.606532675,3061,0.937201675
2023-11-30 18:14:11.204,92179,218607,168711,8338,2.55288715,3142,0.96200185
2023-11-30 18:14:11.204,92180,218640,168721,910,0.27861925,3156,0.9662883
2023-11-30 18:14:11.204,92181,218650,168729,-1780,-0.5449915,3014,0.92281145
2023-11-30 18:14:11.204,92182,218660,168731,7934,2.42919245,3041,0.931078175
2023-11-30 18:14:11.204,92183,218684,168745,4843,1.482805525,3114,0.95342895
2023-11-30 18:14:11.235,92184,218694,168740,-3352,-1.0262986,2990,0.91546325
2023-11-30 18:14:11.235,92185,218703,168759,5619,1.720397325,2948,0.9026039
2023-11-30 18:14:11.235,92186,218723,168763,7365,2.254978875,3065,0.938426375
2023-11-30 18:14:11.235,92187,218726,168751,-2135,-0.653683625,3024,0.9258732
2023-11-30 18:14:11.235,92188,218749,168756,1750,0.53580625,2920,0.894031
2023-11-30 18:14:11.235,92189,218761,168766,8527,2.610754225,3009,0.921280575
2023-11-30 18:14:11.265,92190,218765,168761,1240,0.379657,3031,0.928016425
2023-11-30 18:14:11.265,92191,218801,168786,-2019,-0.618167325,2882,0.88239635
2023-11-30 18:14:11.265,92192,218807,168783,7632,2.3367276,2898,0.88729515
2023-11-30 18:14:11.265,92193,218837,168776,4757,1.456474475,2976,0.9111768
2023-11-30 18:14:11.265,92194,218850,168787,-3551,-1.087227425,2863,0.876579025
2023-11-30 18:14:11.265,92195,218865,168810,5164,1.5810877,2825,0.864944375
2023-11-30 18:14:11.265,92196,218884,168804,7296,2.2338528,2941,0.900460675
2023-11-30 18:14:11.265,92197,218904,168808,-2562,-0.78442035,2897,0.886988975
2023-11-30 18:14:11.296,92198,218913,168813,517,0.158292475,2789,0.853922075
2023-11-30 18:14:11.296,92199,218920,168818,7731,2.367038925,2887,0.883927225
2023-11-30 18:14:11.296,92200,218955,168825,717,0.219527475,2937,0.899235975
2023-11-30 18:14:11.296,92201,218983,168837,-2560,-0.783808,2823,0.864332025
2023-11-30 18:14:11.296,92202,219007,168842,7254,2.22099345,2880,0.881784
2023-11-30 18:14:11.296,92203,219008,168853,5469,1.674471075,3003,0.919443525
2023-11-30 18:14:11.296,92204,219026,168857,-2796,-0.8560653,2923,0.894949525
2023-11-30 18:14:11.326,92205,219038,168847,5192,1.5896606,2901,0.888213675
2023-11-30 18:14:11.326,92206,219060,168850,7505,2.297843375,3034,0.92893495
2023-11-30 18:14:11.326,92207,219063,168843,-1611,-0.493247925,3009,0.921280575
2023-11-30 18:14:11.326,92208,219093,168873,824,0.2522882,2904,0.8891322
2023-11-30 18:14:11.326,92209,219120,168865,7826,2.39612555,2994,0.91668795
2023-11-30 18:14:11.356,92210,219113,168869,1961,0.600409175,3028,0.9270979
2023-11-30 18:14:11.356,92211,219124,168882,-2491,-0.762681925,2887,0.883927225
2023-11-30 18:14:11.356,92212,219151,168871,7307,2.237220725,2906,0.88974455
2023-11-30 18:14:11.388,92213,219165,168865,5675,1.737543125,2987,0.914544725
2023-11-30 18:14:11.388,92214,219165,168880,-3359,-1.028441825,2852,0.8732111
2023-11-30 18:14:11.388,92215,219175,168879,4700,1.4390225,2750,0.84198125
2023-11-30 18:14:11.388,92216,219172,168890,8093,2.477874275,2802,0.85790235
2023-11-30 18:14:11.388,92217,219220,168890,-1539,-0.471203325,2705,0.828203375
2023-11-30 18:14:11.388,92218,219207,168885,269,0.082361075,2533,0.775541275
2023-11-30 18:14:11.419,92219,219206,168879,8215,2.515227625,2578,0.78931915
2023-11-30 18:14:11.419,92220,219237,168892,2116,0.6478663,2612,0.7997291
2023-11-30 18:14:11.419,92221,219232,168889,-2966,-0.90811505,2503,0.766356025
2023-11-30 18:14:11.419,92222,219265,168884,7175,2.196805625,2566,0.78564505
2023-11-30 18:14:11.419,92223,219281,168891,5732,1.7549951,2765,0.846573875
2023-11-30 18:14:11.419,92224,219283,168903,-3835,-1.174181125,2657,0.813506975
2023-11-30 18:14:11.450,92225,219282,168902,4039,1.236640825,2646,0.81013905
2023-11-30 18:14:11.450,92226,219302,168909,7902,2.41939485,2798,0.85667765
2023-11-30 18:14:11.450,92227,219316,168925,-1669,-0.511006075,2811,0.860657925
2023-11-30 18:14:11.450,92228,219340,168923,-97,-0.029698975,2738,0.83830715
2023-11-30 18:14:11.450,92229,219355,168925,8598,2.63249265,2867,0.877803725
2023-11-30 18:14:11.450,92230,219373,168931,2253,0.689812275,2972,0.9099521
2023-11-30 18:14:11.450,92231,219403,168942,-3337,-1.021705975,2882,0.88239635
2023-11-30 18:14:11.491,92232,219409,168937,7165,2.193743875,2911,0.891275425
2023-11-30 18:14:11.491,92233,219426,168945,5862,1.79479785,3011,0.921892925
2023-11-30 18:14:11.491,92234,219437,168947,-3908,-1.1965319,2903,0.888826025
2023-11-30 18:14:11.491,92235,219444,168963,3702,1.13345985,2811,0.860657925
2023-11-30 18:14:11.491,92236,219440,168947,8381,2.566052675,2904,0.8891322
2023-11-30 18:14:11.491,92237,219433,168939,-1441,-0.441198175,2891,0.885151925
2023-11-30 18:14:11.491,92238,219388,168929,-639,-0.195645825,2785,0.852697375
2023-11-30 18:14:11.521,92239,219303,168889,8489,2.599119575,2875,0.880253125
2023-11-30 18:14:11.521,92240,219167,168823,2389,0.731452075,2941,0.900460675
2023-11-30 18:14:11.521,92241,218980,168747,-3707,-1.134990725,2797,0.856371475
2023-11-30 18:14:11.521,92242,218718,168627,6795,2.080459125,2779,0.850860325
2023-11-30 18:14:11.521,92243,218386,168480,5976,1.8297018,2858,0.87504815
2023-11-30 18:14:11.521,92244,217923,168295,-3919,-1.199899825,2737,0.838000975
2023-11-30 18:14:11.521,92245,217434,168114,3086,0.94485605,2640,0.808302
2023-11-30 18:14:11.521,92246,216911,167923,7692,2.3550981,2748,0.8413689
2023-11-30 18:14:11.521,92247,216395,167756,-1716,-0.5253963,2740,0.8389195
2023-11-30 18:14:11.552,92248,215923,167582,-1260,-0.3857805,2613,0.800035275
2023-11-30 18:14:11.552,92249,215509,167434,7532,2.3061101,2693,0.824529275
2023-11-30 18:14:11.552,92250,215162,167334,1917,0.586937475,2767,0.847186225
2023-11-30 18:14:11.552,92251,214820,167213,-4331,-1.326043925,2638,0.80768965
2023-11-30 18:14:11.552,92252,214570,167162,5296,1.6215028,2644,0.8095267
2023-11-30 18:14:11.552,92253,214392,167085,4766,1.45923005,2766,0.84688005
2023-11-30 18:14:11.552,92254,214269,167057,-4301,-1.316858675,2686,0.82238605
2023-11-30 18:14:11.582,92255,214179,167030,2330,0.71338775,2608,0.7985044
2023-11-30 18:14:11.582,92256,214159,167029,6885,2.108014875,2726,0.83463305
2023-11-30 18:14:11.582,92257,214137,167020,-1465,-0.448546375,2722,0.83340835
2023-11-30 18:14:11.582,92258,214169,167026,-1521,-0.465692175,2585,0.791462375
2023-11-30 18:14:11.582,92259,214229,167060,7438,2.27732965,2649,0.811057575
2023-11-30 18:14:11.582,92260,214313,167090,2685,0.822079875,2708,0.8291219
2023-11-30 18:14:11.609,92261,214416,167144,-3632,-1.1120276,2559,0.783501825
2023-11-30 18:14:11.609,92262,214538,167162,5907,1.808575725,2537,0.776765975
2023-11-30 18:14:11.609,92263,214655,167233,5531,1.693453925,2631,0.805546425
2023-11-30 18:14:11.609,92264,214778,167263,-3539,-1.083553325,2515,0.770030125
2023-11-30 18:14:11.609,92265,214927,167337,2382,0.72930885,2387,0.730839725
2023-11-30 18:14:11.609,92266,215067,167369,6865,2.101891375,2449,0.749822575
2023-11-30 18:14:11.609,92267,215207,167418,-661,-0.202381675,2386,0.73053355
2023-11-30 18:14:11.643,92268,215316,167458,-1355,-0.414867125,2183,0.668380025
2023-11-30 18:14:11.643,92269,215446,167512,7056,2.1603708,2172,0.6650121
2023-11-30 18:14:11.643,92270,215559,167532,3018,0.92403615,2160,0.661338
2023-11-30 18:14:11.643,92271,215644,167555,-3657,-1.119681975,1950,0.59704125
2023-11-30 18:14:11.643,92272,215734,167595,5645,1.728357875,1868,0.5719349
2023-11-30 18:14:11.643,92273,215808,167616,6241,1.910838175,1916,0.5866313
2023-11-30 18:14:11.673,92274,215876,167655,-3122,-0.95587835,1788,0.5474409
2023-11-30 18:14:11.673,92275,215929,167651,2363,0.723491525,1669,0.511006075
2023-11-30 18:14:11.673,92276,215983,167668,7969,2.439908575,1770,0.54192975
2023-11-30 18:14:11.673,92277,215985,167682,5,0.001530875,1795,0.549584125
2023-11-30 18:14:11.673,92278,216037,167687,-1579,-0.483450325,1706,0.52233455
2023-11-30 18:14:11.704,92279,216027,167688,7966,2.43899005,1818,0.55662615
2023-11-30 18:14:11.704,92280,216049,167687,3857,1.180916975,1953,0.597959775
2023-11-30 18:14:11.704,92281,216059,167705,-3792,-1.1610156,1901,0.582038675
2023-11-30 18:14:11.704,92282,216081,167709,5795,1.774284125,1949,0.596735075
2023-11-30 18:14:11.704,92283,216114,167713,6947,2.126997725,2108,0.6454169
2023-11-30 18:14:11.704,92284,216170,167724,-3174,-0.97179945,2088,0.6392934
2023-11-30 18:14:11.704,92285,216213,167746,1825,0.558769375,2042,0.62520935
2023-11-30 18:14:11.704,92286,216277,167774,8102,2.48062985,2172,0.6650121
2023-11-30 18:14:11.733,92287,216353,167806,-47,-0.014390225,2202,0.67419735
2023-11-30 18:14:11.733,92288,216445,167839,-2069,-0.633476075,2089,0.639599575
2023-11-30 18:14:11.733,92289,216540,167872,7716,2.3624463,2156,0.6601133
2023-11-30 18:14:11.733,92290,216639,167901,3906,1.19591955,2254,0.69011845
2023-11-30 18:14:11.733,92291,216731,167944,-4054,-1.24123345,2165,0.662868875
2023-11-30 18:14:11.733,92292,216816,167959,5681,1.739380175,2172,0.6650121
2023-11-30 18:14:11.766,92293,216902,167989,7249,2.219462575,2323,0.711244525
2023-11-30 18:14:11.766,92294,216973,168015,-2989,-0.915157075,2321,0.710632175
2023-11-30 18:14:11.766,92295,217041,168033,1636,0.5009023,2283,0.698997525
2023-11-30 18:14:11.766,92296,217086,168043,8511,2.605855425,2442,0.74767935
2023-11-30 18:14:11.766,92297,217116,168064,336,0.1028748,2526,0.77339805
2023-11-30 18:14:11.796,92298,217155,168048,-2212,-0.6772591,2450,0.75012875
2023-11-30 18:14:11.796,92299,217180,168081,8046,2.46348405,2537,0.776765975
2023-11-30 18:14:11.796,92300,217192,168085,4524,1.3851357,2660,0.8144255
2023-11-30 18:14:11.796,92301,217215,168091,-4034,-1.23510995,2572,0.7874821
2023-11-30 18:14:11.796,92302,217249,168085,5609,1.717335575,2557,0.782889475
2023-11-30 18:14:11.796,92303,217257,168112,7700,2.3575475,2680,0.820549
2023-11-30 18:14:11.827,92304,217279,168113,-2746,-0.84075655,2625,0.803709375
2023-11-30 18:14:11.827,92305,217301,168114,1374,0.42068445,2510,0.76849925
2023-11-30 18:14:11.827,92306,217312,168125,9038,2.76720965,2594,0.79421795
2023-11-30 18:14:11.827,92307,217328,168125,736,0.2253448,2606,0.79789205
2023-11-30 18:14:11.827,92308,217365,168126,-2363,-0.723491525,2457,0.752271975
2023-11-30 18:14:11.827,92309,217376,168141,8219,2.516452325,2498,0.76482515
2023-11-30 18:14:11.857,92310,217401,168144,4760,1.457393,2600,0.796055
2023-11-30 18:14:11.857,92311,217408,168158,-3978,-1.21796415,2493,0.763294275
2023-11-30 18:14:11.857,92312,217448,168163,5345,1.636505375,2462,0.75380285
2023-11-30 18:14:11.857,92313,217466,168180,7904,2.4200072,2598,0.79544265
2023-11-30 18:14:11.857,92314,217517,168183,-2726,-0.83463305,2571,0.787175925
2023-11-30 18:14:11.857,92315,217517,168188,1036,0.3171973,2485,0.760844875
2023-11-30 18:14:11.857,92316,217574,168205,8956,2.7421033,2612,0.7997291
2023-11-30 18:14:11.888,92317,217587,168217,948,0.2902539,2679,0.820242825
2023-11-30 18:14:11.888,92318,217640,168227,-2763,-0.845961525,2571,0.787175925
2023-11-30 18:14:11.888,92319,217685,168243,7581,2.321112675,2642,0.80891435
2023-11-30 18:14:11.888,92320,217718,168250,4813,1.473620275,2775,0.849635625
2023-11-30 18:14:11.888,92321,217761,168260,-4023,-1.231742025,2687,0.822692225
2023-11-30 18:14:11.888,92322,217781,168297,4746,1.45310655,2661,0.814731675
2023-11-30 18:14:11.888,92323,217834,168307,7592,2.3244806,2806,0.85912705
2023-11-30 18:14:11.918,92324,217887,168319,-2463,-0.754109025,2785,0.852697375
2023-11-30 18:14:11.918,92325,217922,168335,454,0.13900345,2689,0.823304575
2023-11-30 18:14:11.918,92326,217984,168357,8260,2.5290055,2811,0.860657925
2023-11-30 18:14:11.918,92327,218014,168367,1304,0.3992522,2876,0.8805593
2023-11-30 18:14:11.918,92328,218093,168396,-2974,-0.91056445,2755,0.843512125
2023-11-30 18:14:11.958,92329,218108,168399,7350,2.25038625,2805,0.858820875
2023-11-30 18:14:11.958,92330,218158,168402,5239,1.604050825,2922,0.89464335
2023-11-30 18:14:11.958,92331,218201,168432,-4144,-1.2687892,2811,0.860657925
2023-11-30 18:14:11.958,92332,218226,168446,4466,1.36737755,2754,0.84320595
2023-11-30 18:14:11.958,92333,218259,168456,8263,2.529924025,2879,0.881477825
2023-11-30 18:14:11.958,92334,218281,168464,-2111,-0.646335425,2841,0.869843175
2023-11-30 18:14:11.958,92335,218331,168482,164,0.0502127,2713,0.830652775
2023-11-30 18:14:11.989,92336,218354,168489,9158,2.80395065,2794,0.85545295
2023-11-30 18:14:11.989,92337,218375,168496,1683,0.515292525,2822,0.86402585
2023-11-30 18:14:11.989,92338,218402,168494,-3206,-0.98159705,2663,0.815344025
2023-11-30 18:14:11.989,92339,218417,168516,7645,2.340707875,2673,0.818405775
2023-11-30 18:14:11.989,92340,218435,168503,5533,1.694066275,2762,0.84565535
2023-11-30 18:14:11.989,92341,218466,168538,-4195,-1.284404125,2635,0.806771125
2023-11-30 18:14:12.019,92342,218463,168522,4274,1.30859195,2558,0.78319565
2023-11-30 18:14:12.019,92343,218488,168533,8387,2.567889725,2661,0.814731675
2023-11-30 18:14:12.019,92344,218491,168527,-2125,-0.650621875,2611,0.799422925
2023-11-30 18:14:12.019,92345,218527,168532,-227,-0.069501725,2471,0.756558425
2023-11-30 18:14:12.019,92346,218522,168533,9154,2.80272595,2552,0.7813586
2023-11-30 18:14:12.049,92347,218549,168544,1851,0.566729925,2605,0.797585875
2023-11-30 18:14:12.049,92348,218564,168538,-3702,-1.13345985,2471,0.756558425
2023-11-30 18:14:12.049,92349,218583,168548,7449,2.280697575,2501,0.765743675
2023-11-30 18:14:12.049,92350,218601,168560,5886,1.80214605,2635,0.806771125
2023-11-30 18:14:12.049,92351,218609,168570,-4133,-1.265421275,2560,0.783808
2023-11-30 18:14:12.049,92352,218628,168579,4033,1.234803775,2516,0.7703363
2023-11-30 18:14:12.049,92353,218667,168574,8925,2.732611875,2669,0.817181075
2023-11-30 18:14:12.080,92354,218678,168571,-1901,-0.582038675,2684,0.8217737
2023-11-30 18:14:12.080,92355,218677,168583,-446,-0.13655405,2587,0.792074725
2023-11-30 18:14:12.080,92356,218683,168578,9527,2.916929225,2702,0.82728485
2023-11-30 18:14:12.080,92357,218721,168597,2152,0.6588886,2791,0.854534425
2023-11-30 18:14:12.080,92358,218710,168581,-3993,-1.222556775,2671,0.817793425
2023-11-30 18:14:12.080,92359,218725,168596,7046,2.15730905,2699,0.826366325
2023-11-30 18:14:12.110,92360,218742,168591,6106,1.86950455,2827,0.865556725
2023-11-30 18:14:12.110,92361,218728,168592,-4314,-1.32083895,2728,0.8352454
2023-11-30 18:14:12.110,92362,218746,168595,3369,1.031503575,2648,0.8107514
2023-11-30 18:14:12.110,92363,218791,168602,8923,2.731999525,2776,0.8499418
2023-11-30 18:14:12.110,92364,218774,168611,-1691,-0.517741925,2760,0.845043
2023-11-30 18:14:12.110,92365,218798,168605,-982,-0.30066385,2617,0.801259975
2023-11-30 18:14:12.110,92366,218814,168613,9059,2.773639325,2692,0.8242231
2023-11-30 18:14:12.110,92367,218814,168615,2306,0.70603955,2754,0.84320595
2023-11-30 18:14:12.141,92368,218828,168618,-4013,-1.228680275,2613,0.800035275
2023-11-30 18:14:12.141,92369,218844,168626,6985,2.138632375,2629,0.804934075
2023-11-30 18:14:12.141,92370,218849,168636,6407,1.961663225,2772,0.8487171
2023-11-30 18:14:12.141,92371,218879,168648,-4109,-1.258073075,2697,0.825753975
2023-11-30 18:14:12.141,92372,218876,168617,3065,0.938426375,2636,0.8070773
2023-11-30 18:14:12.141,92373,218890,168635,8499,2.602181325,2791,0.854534425
2023-11-30 18:14:12.141,92374,218892,168638,-1480,-0.453139,2801,0.857596175
2023-11-30 18:14:12.170,92375,218900,168644,-1326,-0.40598805,2649,0.811057575
2023-11-30 18:14:12.170,92376,218911,168630,8553,2.618714775,2744,0.8401442
2023-11-30 18:14:12.170,92377,218918,168642,2617,0.801259975,2817,0.862494975
2023-11-30 18:14:12.170,92378,218945,168638,-4181,-1.280117675,2669,0.817181075
2023-11-30 18:14:12.170,92379,218976,168652,6314,1.93318895,2660,0.8144255
2023-11-30 18:14:12.201,92380,218984,168655,6390,1.95645825,2793,0.855146775
2023-11-30 18:14:12.201,92381,218988,168653,-4183,-1.280730025,2677,0.819630475
2023-11-30 18:14:12.201,92382,219005,168661,2173,0.665318275,2578,0.78931915
2023-11-30 18:14:12.232,92383,219022,168671,7788,2.3844909,2693,0.824529275
2023-11-30 18:14:12.232,92384,219026,168661,-2037,-0.623678475,2672,0.8180996
2023-11-30 18:14:12.232,92385,219035,168690,-2715,-0.831265125,2511,0.768805425
2023-11-30 18:14:12.232,92386,219065,168691,7491,2.293556925,2583,0.790850025
2023-11-30 18:14:12.232,92387,219063,168688,2356,0.7213483,2670,0.81748725
2023-11-30 18:14:12.232,92388,219090,168691,-4213,-1.289915275,2539,0.777378325
2023-11-30 18:14:12.263,92389,219105,168689,6876,2.1052593,2542,0.77829685
2023-11-30 18:14:12.263,92390,219106,168714,7620,2.3330535,2679,0.820242825
2023-11-30 18:14:12.263,92391,219103,168698,-3358,-1.02813565,2596,0.7948303
2023-11-30 18:14:12.263,92392,219133,168709,2681,0.820855175,2496,0.7642128
2023-11-30 18:14:12.263,92393,219158,168693,9256,2.8339558,2605,0.797585875
2023-11-30 18:14:12.263,92394,219153,168710,-831,-0.254431425,2589,0.792687075
2023-11-30 18:14:12.294,92395,219185,168713,-1933,-0.591836275,2427,0.743086725
2023-11-30 18:14:12.294,92396,219173,168716,8965,2.744858875,2481,0.759620175
2023-11-30 18:14:12.294,92397,219201,168714,3517,1.076817475,2555,0.782277125
2023-11-30 18:14:12.294,92398,219198,168735,-4378,-1.34043415,2406,0.73665705
2023-11-30 18:14:12.294,92399,219200,168720,6287,1.924922225,2366,0.72441005
2023-11-30 18:14:12.294,92400,219238,168727,7374,2.25773445,2449,0.749822575
2023-11-30 18:14:12.294,92401,219246,168750,-3823,-1.170507025,2309,0.706958075
2023-11-30 18:14:12.325,92402,219258,168733,1949,0.596735075,1978,0.60561415
2023-11-30 18:14:12.325,92403,219258,168737,9291,2.844671925,2147,0.657357725
2023-11-30 18:14:12.325,92404,219257,168732,-808,-0.2473894,2100,0.6429675
2023-11-30 18:14:12.325,92405,219255,168728,-2386,-0.73053355,1915,0.586325125
2023-11-30 18:14:12.325,92406,219281,168725,8640,2.645352,1982,0.60683885
2023-11-30 18:14:12.325,92407,219281,168733,3433,1.051098775,2602,0.79666735
2023-11-30 18:14:12.325,92408,219315,168724,-4828,-1.4782129,2157,0.660419475
2023-11-30 18:14:12.365,92409,219300,168742,5645,1.728357875,2191,0.670829425
2023-11-30 18:14:12.365,92410,219326,168754,7333,2.245181275,3056,0.9356708
2023-11-30 18:14:12.365,92411,219320,168752,-3949,-1.209085075,2722,0.83340835
2023-11-30 18:14:12.365,92412,219358,168754,1358,0.41578565,2097,0.642048975
2023-11-30 18:14:12.365,92413,219367,168750,9473,2.900395775,2675,0.819018125
2023-11-30 18:14:12.365,92414,219366,168755,-631,-0.193196425,2819,0.863107325
2023-11-30 18:14:12.365,92415,219385,168755,-2899,-0.887601325,2343,0.717368025
2023-11-30 18:14:12.365,92416,219409,168773,8790,2.69127825,2772,0.8487171
2023-11-30 18:14:12.365,92417,219413,168777,3916,1.1989813,2937,0.899235975
2023-11-30 18:14:12.395,92418,219434,168779,-4916,-1.5051563,2785,0.852697375
2023-11-30 18:14:12.395,92419,219445,168785,5404,1.6545697,2690,0.82361075
2023-11-30 18:14:12.395,92420,219453,168793,7354,2.25161095,2865,0.877191375
2023-11-30 18:14:12.395,92421,219465,168784,-4015,-1.229292625,2683,0.821467525
2023-11-30 18:14:12.395,92422,219488,168812,911,0.278925425,2527,0.773704225
2023-11-30 18:14:12.395,92423,219474,168802,9513,2.912642775,2625,0.803709375
2023-11-30 18:14:12.395,92424,219475,168781,-418,-0.12798115,2643,0.809220525
2023-11-30 18:14:12.426,92425,219439,168784,-3316,-1.0152763,2451,0.750434925
2023-11-30 18:14:12.426,92426,219361,168747,7920,2.424906,2520,0.771561
2023-11-30 18:14:12.426,92427,219246,168683,3917,1.199287475,2624,0.8034032
2023-11-30 18:14:12.426,92428,219078,168614,-5137,-1.572820975,2431,0.744311425
2023-11-30 18:14:12.426,92429,218868,168532,4736,1.4500448,2362,0.72318535
2023-11-30 18:14:12.426,92430,218586,168429,7371,2.256815925,2519,0.771254825
2023-11-30 18:14:12.456,92431,218246,168267,-4121,-1.261747175,2425,0.742474375
2023-11-30 18:14:12.456,92432,217782,168099,-88,-0.0269434,2289,0.700834575
2023-11-30 18:14:12.456,92433,217289,167915,7883,2.413577525,2432,0.7446176
2023-11-30 18:14:12.456,92434,216846,167755,-674,-0.20636195,2474,0.75747695
2023-11-30 18:14:12.456,92435,216372,167583,-3797,-1.162546475,2310,0.70726425
2023-11-30 18:14:12.456,92436,215973,167456,6982,2.13771385,2367,0.724716225
2023-11-30 18:14:12.456,92437,215641,167353,3381,1.035177675,2493,0.763294275
2023-11-30 18:14:12.487,92438,215360,167257,-5524,-1.6913107,2354,0.72073595
2023-11-30 18:14:12.487,92439,215118,167188,3797,1.162546475,2290,0.70114075
2023-11-30 18:14:12.487,92440,214936,167113,6519,1.995954825,2471,0.756558425
2023-11-30 18:14:12.487,92441,214812,167095,-4040,-1.236947,2397,0.733901475
2023-11-30 18:14:12.487,92442,214725,167067,-348,-0.1065489,2177,0.666542975
2023-11-30 18:14:12.487,92443,214697,167058,8013,2.453380275,2346,0.71828655
2023-11-30 18:14:12.518,92444,214701,167066,-27,-0.008266725,2360,0.722573
2023-11-30 18:14:12.518,92445,214747,167094,-3740,-1.1450945,2179,0.667155325
2023-11-30 18:14:12.518,92446,214831,167122,6892,2.1101581,2193,0.671441775
2023-11-30 18:14:12.518,92447,214942,167159,4249,1.300937575,2298,0.70359015
2023-11-30 18:14:12.518,92448,215044,167210,-4821,-1.476069675,2126,0.65092805
2023-11-30 18:14:12.550,92449,215185,167245,4181,1.280117675,1925,0.589386875
2023-11-30 18:14:12.550,92450,215328,167306,7451,2.281309925,2128,0.6515404
2023-11-30 18:14:12.550,92451,215494,167363,-3007,-0.920668225,2000,0.61235
2023-11-30 18:14:12.550,92452,215631,167414,-18,-0.00551115,1727,0.528764225
2023-11-30 18:14:12.550,92453,215769,167463,8691,2.660966925,1849,0.566117575
2023-11-30 18:14:12.550,92454,215910,167511,822,0.25167585,1828,0.5596879
2023-11-30 18:14:12.550,92455,216033,167554,-3472,-1.0630396,1613,0.493860275
2023-11-30 18:14:12.550,92456,216161,167601,7554,2.31284595,1590,0.48681825
2023-11-30 18:14:12.580,92457,216269,167646,5067,1.551388725,1687,0.516517225
2023-11-30 18:14:12.580,92458,216368,167681,-4719,-1.444839825,1491,0.456506925
2023-11-30 18:14:12.580,92459,216451,167730,4109,1.258073075,1400,0.428645
2023-11-30 18:14:12.580,92460,216529,167730,8536,2.6135098,1515,0.463855125
2023-11-30 18:14:12.580,92461,216583,167754,-2563,-0.784726525,1480,0.453139
2023-11-30 18:14:12.580,92462,216635,167783,-294,-0.09001545,1372,0.4200721
2023-11-30 18:14:12.610,92463,216674,167793,9438,2.88967965,1498,0.45865015
2023-11-30 18:14:12.610,92464,216711,167808,1392,0.4261956,1591,0.487124425
2023-11-30 18:14:12.610,92465,216740,167806,-3717,-1.138052475,1506,0.46109955
2023-11-30 18:14:12.610,92466,216743,167818,7666,2.34713755,1596,0.4886553
2023-11-30 18:14:12.610,92467,216763,167815,5625,1.722234375,1773,0.542848275
2023-11-30 18:14:12.640,92468,216777,167819,-4705,-1.440553375,1730,0.52968275
2023-11-30 18:14:12.640,92469,216791,167840,3620,1.1083535,1741,0.533050675
2023-11-30 18:14:12.640,92470,216825,167846,8391,2.569114425,1952,0.5976536
2023-11-30 18:14:12.640,92471,216848,167843,-2620,-0.8021785,2005,0.613880875
2023-11-30 18:14:12.640,92472,216898,167861,-741,-0.226875675,1950,0.59704125
2023-11-30 18:14:12.640,92473,216963,167895,9452,2.8939661,2110,0.64602925
2023-11-30 18:14:12.671,92474,217005,167898,1468,0.4494649,2227,0.681851725
2023-11-30 18:14:12.671,92475,217098,167939,-4303,-1.317471025,2131,0.652458925
2023-11-30 18:14:12.671,92476,217159,167960,7369,2.256203575,2193,0.671441775
2023-11-30 18:14:12.671,92477,217203,167978,6011,1.840417925,2364,0.7237977
2023-11-30 18:14:12.671,92478,217293,168008,-4708,-1.4414719,2314,0.70848895
2023-11-30 18:14:12.671,92479,217341,168027,3664,1.1218252,2288,0.7005284
2023-11-30 18:14:12.702,92480,217396,168049,9162,2.80517535,2463,0.754109025
2023-11-30 18:14:12.702,92481,217427,168083,-2367,-0.724716225,2480,0.759314
2023-11-30 18:14:12.702,92482,217467,168077,-1127,-0.345059225,2366,0.72441005
2023-11-30 18:14:12.702,92483,217503,168095,9570,2.93009475,2497,0.764518975
2023-11-30 18:14:12.733,92484,217516,168099,1994,0.61051295,2588,0.7923809
2023-11-30 18:14:12.733,92485,217535,168110,-4308,-1.3190019,2458,0.75257815
2023-11-30 18:14:12.733,92486,217521,168108,6821,2.088419675,2478,0.75870165
2023-11-30 18:14:12.733,92487,217539,168115,5967,1.826946225,2606,0.79789205
2023-11-30 18:14:12.733,92488,217548,168105,-4721,-1.445452175,2495,0.763906625
2023-11-30 18:14:12.733,92489,217546,168109,3087,0.945162225,2392,0.7323706
2023-11-30 18:14:12.764,92490,217575,168100,8969,2.746083575,2532,0.7752351
2023-11-30 18:14:12.764,92491,217558,168107,-2096,-0.6417428,2506,0.76727455
2023-11-30 18:14:12.764,92492,217564,168102,-1487,-0.455282225,2337,0.715530975
2023-11-30 18:14:12.764,92493,217578,168106,9221,2.823239675,2418,0.74033115
2023-11-30 18:14:12.764,92494,217575,168106,2186,0.66929855,2545,0.779215375
2023-11-30 18:14:12.764,92495,217601,168109,-4392,-1.3447206,2340,0.7164495
2023-11-30 18:14:12.795,92496,217609,168125,6669,2.041881075,2352,0.7201236
2023-11-30 18:14:12.795,92497,217597,168102,6187,1.894304725,2565,0.785338875
2023-11-30 18:14:12.795,92498,217627,168122,-4589,-1.405037075,2436,0.7458423
2023-11-30 18:14:12.795,92499,217629,168127,2531,0.774928925,2333,0.714306275
2023-11-30 18:14:12.795,92500,217646,168139,8589,2.629737075,2536,0.7764598
2023-11-30 18:14:12.795,92501,217669,168133,-1889,-0.578364575,2560,0.783808
2023-11-30 18:14:12.795,92502,217686,168142,-1880,-0.575609,2316,0.7091013
2023-11-30 18:14:12.827,92503,217730,168163,8616,2.6380038,2507,0.767580725
2023-11-30 18:14:12.827,92504,217751,168159,2352,0.7201236,2579,0.789625325
2023-11-30 18:14:12.827,92505,217775,168166,-4665,-1.428306375,2415,0.739412625
2023-11-30 18:14:12.827,92506,217836,168188,6098,1.86705515,2402,0.73543235
2023-11-30 18:14:12.827,92507,217866,168214,6213,1.902265275,2599,0.795748825
2023-11-30 18:14:12.827,92508,217925,168230,-4493,-1.375644275,2431,0.744311425
2023-11-30 18:14:12.827,92509,217972,168226,2068,0.6331699,2280,0.698079
2023-11-30 18:14:12.858,92510,218003,168255,8359,2.559316825,2454,0.75135345
2023-11-30 18:14:12.858,92511,218047,168270,-1787,-0.547134725,2441,0.747373175
2023-11-30 18:14:12.858,92512,218115,168290,-2078,-0.63623165,2279,0.697772825
2023-11-30 18:14:12.858,92513,218152,168308,8638,2.64473965,2350,0.71951125
2023-11-30 18:14:12.858,92514,218194,168321,2757,0.844124475,2439,0.746760825
2023-11-30 18:14:12.858,92515,218250,168337,-4781,-1.463822675,2302,0.70481485
2023-11-30 18:14:12.888,92516,218313,168358,6067,1.857563725,2294,0.70236545
2023-11-30 18:14:12.888,92517,218316,168366,6709,2.054128075,2422,0.74155585
2023-11-30 18:14:12.888,92518,218383,168381,-4498,-1.37717515,2323,0.711244525
2023-11-30 18:14:12.888,92519,218402,168395,1729,0.529376575,2191,0.670829425
2023-11-30 18:14:12.888,92520,218427,168401,8968,2.7457774,2325,0.711856875
2023-11-30 18:14:12.888,92521,218453,168420,-1293,-0.395884275,2312,0.7078766
2023-11-30 18:14:12.888,92522,218483,168425,-2485,-0.760844875,2142,0.65582685
2023-11-30 18:14:12.919,92523,218530,168426,8674,2.65576195,2189,0.670217075
2023-11-30 18:14:12.919,92524,218542,168439,3215,0.984352625,2259,0.691649325
2023-11-30 18:14:12.919,92525,218565,168431,-4848,-1.4843364,2107,0.645110725
2023-11-30 18:14:12.919,92526,218591,168442,5853,1.792042275,2079,0.636537825
2023-11-30 18:14:12.919,92527,218603,168462,6855,2.098829625,2202,0.67419735
2023-11-30 18:14:12.919,92528,218636,168462,-4284,-1.3116537,2112,0.6466416
2023-11-30 18:14:12.950,92529,218620,168461,1244,0.3808817,2003,0.613268525
2023-11-30 18:14:12.950,92530,218677,168481,8676,2.6563743,2132,0.6527651
2023-11-30 18:14:12.950,92531,218667,168477,-1069,-0.327301075,2154,0.65950095
2023-11-30 18:14:12.950,92532,218698,168486,-2837,-0.868618475,2014,0.61663645
2023-11-30 18:14:12.950,92533,218722,168495,8364,2.5608477,2090,0.63990575
2023-11-30 18:14:13.001,92534,218729,168498,3220,0.9858835,2205,0.675115875
2023-11-30 18:14:13.001,92535,218755,168502,-5078,-1.55475665,2086,0.63868105
2023-11-30 18:14:13.001,92536,218760,168518,5409,1.656100575,2072,0.6343946
2023-11-30 18:14:13.001,92537,218787,168517,7230,2.21364525,2224,0.6809332
2023-11-30 18:14:13.001,92538,218777,168515,-4359,-1.334616825,2175,0.665930625
2023-11-30 18:14:13.001,92539,218788,168532,977,0.299132975,2059,0.630414325
2023-11-30 18:14:13.001,92540,218828,168530,9299,2.847121325,2232,0.6833826
2023-11-30 18:14:13.032,92541,218844,168520,-834,-0.25534995,2272,0.6956296
2023-11-30 18:14:13.032,92542,218860,168532,-3256,-0.9969058,2138,0.65460215
2023-11-30 18:14:13.032,92543,218861,168534,8532,2.6122851,2209,0.676340575
2023-11-30 18:14:13.032,92544,218872,168548,3806,1.16530205,2327,0.712469225
2023-11-30 18:14:13.032,92545,218882,168545,-5077,-1.554450475,2183,0.668380025
2023-11-30 18:14:13.032,92546,218870,168556,5094,1.55965545,2146,0.65705155
2023-11-30 18:14:13.063,92547,218896,168548,7446,2.27977905,2277,0.697160475
2023-11-30 18:14:13.063,92548,218906,168556,-4176,-1.2785868,2205,0.675115875
2023-11-30 18:14:13.063,92549,218917,168555,367,0.112366225,2051,0.627964925
2023-11-30 18:14:13.063,92550,218949,168547,8832,2.7041376,2200,0.673585
2023-11-30 18:14:13.063,92551,218923,168551,-630,-0.19289025,2217,0.678789975
2023-11-30 18:14:13.063,92552,218941,168554,-3593,-1.100086775,2048,0.6270464
2023-11-30 18:14:13.063,92553,218971,168562,7954,2.43531595,2087,0.638987225
2023-11-30 18:14:13.063,92554,218979,168566,3982,1.21918885,2229,0.682464075
2023-11-30 18:14:13.104,92555,218985,168568,-5198,-1.59149765,2050,0.62765875
2023-11-30 18:14:13.104,92556,218997,168566,4716,1.4439213,2008,0.6147994
2023-11-30 18:14:13.104,92557,219003,168559,7423,2.272737025,2161,0.661644175
2023-11-30 18:14:13.104,92558,219012,168580,-3903,-1.195001025,2121,0.649397175
2023-11-30 18:14:13.104,92559,219022,168569,198,0.06062265,1970,0.60316475
2023-11-30 18:14:13.104,92560,219054,168585,8734,2.67413245,2150,0.65827625
2023-11-30 18:14:13.104,92561,219054,168590,-337,-0.103180975,2236,0.6846073
2023-11-30 18:14:13.136,92562,219066,168592,-3678,-1.12611165,2043,0.625515525
2023-11-30 18:14:13.136,92563,219079,168605,7583,2.321725025,2134,0.65337745
2023-11-30 18:14:13.136,92564,219116,168603,4123,1.262359525,2306,0.70603955
2023-11-30 18:14:13.136,92565,219113,168603,-5267,-1.612623725,2129,0.651846575
2023-11-30 18:14:13.136,92566,219127,168618,4151,1.270932425,2034,0.62275995
2023-11-30 18:14:13.167,92567,219138,168627,7560,2.314683,2212,0.6772591
2023-11-30 18:14:13.167,92568,219157,168614,-3593,-1.100086775,2144,0.6564392
2023-11-30 18:14:13.167,92569,219160,168633,-264,-0.0808302,1899,0.581426325
2023-11-30 18:14:13.167,92570,219171,168623,8545,2.616265375,2097,0.642048975
2023-11-30 18:14:13.167,92571,219190,168617,-394,-0.12063295,2132,0.6527651
2023-11-30 18:14:13.167,92572,219208,168645,-4598,-1.40779265,1954,0.59826595
2023-11-30 18:14:13.167,92573,219200,168632,6437,1.970848475,1984,0.6074512
2023-11-30 18:14:13.197,92574,219247,168632,3315,1.014970125,2158,0.66072565
2023-11-30 18:14:13.197,92575,219250,168633,-5727,-1.753464225,1967,0.602246225
2023-11-30 18:14:13.197,92576,219264,168652,4107,1.257460725,1911,0.585100425
2023-11-30 18:14:13.197,92577,219258,168648,8619,2.638922325,2051,0.627964925
2023-11-30 18:14:13.197,92578,219280,168658,-2441,-0.747373175,2009,0.615105575
2023-11-30 18:14:13.197,92579,219301,168656,329,0.100731575,1853,0.567342275
2023-11-30 18:14:13.228,92580,219299,168657,9641,2.951833175,2001,0.612656175
2023-11-30 18:14:13.228,92581,219311,168664,871,0.266678425,2055,0.629189625
2023-11-30 18:14:13.228,92582,219323,168670,-4006,-1.22653705,1901,0.582038675
2023-11-30 18:14:13.228,92583,219343,168662,7533,2.306416275,1925,0.589386875
2023-11-30 18:14:13.228,92584,219359,168681,5034,1.54128495,2053,0.628577275
2023-11-30 18:14:13.228,92585,219357,168667,-5073,-1.553225775,1915,0.586325125
2023-11-30 18:14:13.228,92586,219366,168673,3460,1.0593655,1850,0.56642375
2023-11-30 18:14:13.228,92587,219364,168669,7778,2.38142915,1980,0.6062265
2023-11-30 18:14:13.228,92588,219401,168684,-3007,-0.920668225,1927,0.589999225
2023-11-30 18:14:13.259,92589,219408,168685,-947,-0.289947725,1667,0.510393725
2023-11-30 18:14:13.259,92590,219416,168691,8589,2.629737075,1814,0.55540145
2023-11-30 18:14:13.259,92591,219427,168691,853,0.261167275,1798,0.55050265
2023-11-30 18:14:13.259,92592,219442,168698,-4266,-1.30614255,1522,0.46599835
2023-11-30 18:14:13.259,92593,219446,168698,6759,2.069436825,1524,0.4666107
2023-11-30 18:14:13.259,92594,219455,168690,4764,1.4586177,2019,0.618167325
2023-11-30 18:14:13.259,92595,219474,168694,-5284,-1.6178287,1720,0.526621
2023-11-30 18:14:13.290,92596,219482,168707,3045,0.932302875,1680,0.514374
2023-11-30 18:14:13.290,92597,219508,168709,7841,2.400718175,2608,0.7985044
2023-11-30 18:14:13.290,92598,219499,168713,-3028,-0.9270979,2666,0.81626255
2023-11-30 18:14:13.290,92599,219522,168711,-1379,-0.422215325,1789,0.547747075
2023-11-30 18:14:13.290,92600,219529,168707,8541,2.615040675,2250,0.68889375
2023-11-30 18:14:13.320,92601,219553,168724,828,0.2535129,2563,0.784726525
2023-11-30 18:14:13.320,92602,219548,168731,-4561,-1.396464175,1757,0.537949475
2023-11-30 18:14:13.320,92603,219584,168734,6695,2.049841625,2023,0.619392025
2023-11-30 18:14:13.320,92604,219583,168732,5178,1.58537415,2491,0.762681925
2023-11-30 18:14:13.351,92605,219614,168750,-5396,-1.6521203,2315,0.708795125
2023-11-30 18:14:13.351,92606,219602,168764,2613,0.800035275,1975,0.604695625
2023-11-30 18:14:13.351,92607,219635,168757,7982,2.44388885,2380,0.7286965
2023-11-30 18:14:13.351,92608,219647,168764,-2920,-0.894031,2196,0.6723603
2023-11-30 18:14:13.351,92609,219667,168770,-1702,-0.52110985,1964,0.6013277
2023-11-30 18:14:13.351,92610,219674,168774,8360,2.559623,1986,0.60806355
2023-11-30 18:14:13.382,92611,219678,168781,1191,0.364654425,2009,0.615105575
2023-11-30 18:14:13.382,92612,219683,168769,-4991,-1.528119425,1839,0.563055825
2023-11-30 18:14:13.382,92613,219658,168760,6164,1.8872627,1841,0.563668175
2023-11-30 18:14:13.382,92614,219618,168729,5372,1.6447721,1962,0.60071535
2023-11-30 18:14:13.382,92615,219503,168692,-5303,-1.623646025,1847,0.565505225
2023-11-30 18:14:13.382,92616,219393,168646,2170,0.66439975,1741,0.533050675
2023-11-30 18:14:13.382,92617,219218,168569,7895,2.417251625,1855,0.567954625
2023-11-30 18:14:13.382,92618,219005,168485,-2964,-0.9075027,1836,0.5621373
2023-11-30 18:14:13.382,92619,218766,168380,-2451,-0.750434925,1699,0.520191325
2023-11-30 18:14:13.413,92620,218424,168244,8019,2.455217325,1792,0.5486656
2023-11-30 18:14:13.413,92621,218000,168080,1250,0.38271875,1868,0.5719349
2023-11-30 18:14:13.413,92622,217555,167902,-5253,-1.608337275,1714,0.52478395
2023-11-30 18:14:13.413,92623,217134,167756,5464,1.6729402,1706,0.52233455
2023-11-30 18:14:13.413,92624,216697,167611,5040,1.543122,1832,0.5609126
2023-11-30 18:14:13.413,92625,216327,167478,-5653,-1.730807275,1743,0.533663025
2023-11-30 18:14:13.413,92626,216017,167376,1444,0.4421167,1666,0.51008755
2023-11-30 18:14:13.444,92627,215778,167309,7524,2.3036607,1804,0.5523397
2023-11-30 18:14:13.444,92628,215588,167254,-2773,-0.849023275,1793,0.548971775
2023-11-30 18:14:13.444,92629,215462,167205,-2689,-0.823304575,1639,0.501820825
2023-11-30 18:14:13.444,92630,215370,167185,7596,2.3257053,1706,0.52233455
2023-11-30 18:14:13.444,92631,215312,167183,1496,0.4580378,1772,0.5425421
2023-11-30 18:14:13.444,92632,215310,167182,-5350,-1.63803625,1618,0.49539115
2023-11-30 18:14:13.475,92633,215326,167188,5458,1.67110315,1609,0.492635575
2023-11-30 18:14:13.475,92634,215412,167210,5767,1.765711225,1737,0.531825975
2023-11-30 18:14:13.475,92635,215482,167253,-4704,-1.4402472,1636,0.5009023
2023-11-30 18:14:13.475,92636,215595,167281,1936,0.5927548,1510,0.46232425
2023-11-30 18:14:13.475,92637,215724,167332,8868,2.7151599,1628,0.4984529
2023-11-30 18:14:13.506,92638,215833,167384,-1780,-0.5449915,1604,0.4911047
2023-11-30 18:14:13.506,92639,215977,167430,-2281,-0.698385175,1434,0.43905495
2023-11-30 18:14:13.506,92640,216107,167482,8795,2.692809125,1481,0.453445175
2023-11-30 18:14:13.506,92641,216247,167537,2600,0.796055,1533,0.469366275
2023-11-30 18:14:13.506,92642,216392,167587,-4974,-1.52291445,1356,0.4151733
2023-11-30 18:14:13.506,92643,216525,167628,5870,1.79724725,1309,0.400783075
2023-11-30 18:14:13.537,92644,216647,167677,6718,2.05688365,1415,0.433237625
2023-11-30 18:14:13.537,92645,216771,167730,-4480,-1.371664,1294,0.39619045
2023-11-30 18:14:13.537,92646,216874,167766,1525,0.466916875,1172,0.3588371
2023-11-30 18:14:13.537,92647,216986,167789,8628,2.6416779,1283,0.392822525
2023-11-30 18:14:13.537,92648,217073,167828,-1441,-0.441198175,1283,0.392822525
2023-11-30 18:14:13.537,92649,217150,167866,-2633,-0.806158775,1139,0.348733325
2023-11-30 18:14:13.568,92650,217217,167888,8158,2.49777565,1220,0.3735335
2023-11-30 18:14:13.568,92651,217272,167912,2913,0.891887775,1353,0.414254775
2023-11-30 18:14:13.568,92652,217309,167944,-4886,-1.49597105,1235,0.378126125
2023-11-30 18:14:13.568,92653,217359,167940,5211,1.595477925,1277,0.390985475
2023-11-30 18:14:13.568,92654,217385,167951,6263,1.917574025,1620,0.4960035
2023-11-30 18:14:13.568,92655,217414,167976,-4346,-1.33063655,1610,0.49294175
2023-11-30 18:14:13.568,92656,217432,167976,1029,0.315054075,1475,0.451608125
2023-11-30 18:14:13.598,92657,217457,167984,8323,2.548294525,1748,0.5351939
2023-11-30 18:14:13.598,92658,217465,167990,-1297,-0.397108975,2039,0.624290825
2023-11-30 18:14:13.598,92659,217514,167997,-3165,-0.969043875,1650,0.50518875
2023-11-30 18:14:13.598,92660,217546,168018,7594,2.32509295,1911,0.585100425
2023-11-30 18:14:13.598,92661,217600,168040,2803,0.858208525,2137,0.654295975
2023-11-30 18:14:13.598,92662,217619,168035,-5236,-1.6031323,1979,0.605920325
2023-11-30 18:14:13.598,92663,217663,168068,4991,1.528119425,2022,0.61908585
2023-11-30 18:14:13.629,92664,217750,168086,6494,1.98830045,2187,0.669604725
2023-11-30 18:14:13.629,92665,217783,168096,-4412,-1.3508441,2123,0.650009525
2023-11-30 18:14:13.629,92666,217811,168115,617,0.188909975,1973,0.604083275
2023-11-30 18:14:13.629,92667,217882,168139,8262,2.52961785,2112,0.6466416
2023-11-30 18:14:13.629,92668,217933,168153,-1135,-0.347508625,2111,0.646335425
2023-11-30 18:14:13.660,92669,217941,168171,-3437,-1.052323475,1946,0.59581655
2023-11-30 18:14:13.660,92670,217978,168164,7626,2.33489055,1994,0.61051295
2023-11-30 18:14:13.660,92671,217993,168175,3338,1.02201215,2081,0.637150175
2023-11-30 18:14:13.660,92672,217999,168181,-5208,-1.5945594,1930,0.59091775
2023-11-30 18:14:13.660,92673,217998,168192,4644,1.4218767,1876,0.5743843
2023-11-30 18:14:13.660,92674,218011,168196,6847,2.096380225,1990,0.60928825
2023-11-30 18:14:13.660,92675,218014,168181,-4105,-1.256848375,1905,0.583263375
2023-11-30 18:14:13.660,92676,218017,168186,367,0.112366225,1769,0.541623575
2023-11-30 18:14:13.691,92677,218001,168177,8602,2.63371735,1864,0.5707102
2023-11-30 18:14:13.691,92678,218011,168170,-772,-0.2363671,1870,0.57254725
2023-11-30 18:14:13.691,92679,217999,168186,-3595,-1.100699125,1699,0.520191325
2023-11-30 18:14:13.691,92680,217993,168179,7741,2.370100675,1728,0.5290704
2023-11-30 18:14:13.691,92681,218001,168187,3640,1.114477,1814,0.55540145
2023-11-30 18:14:13.691,92682,218016,168185,-5241,-1.604663175,1678,0.51376165
2023-11-30 18:14:13.722,92683,218001,168188,4315,1.321145125,1631,0.499371425
2023-11-30 18:14:13.722,92684,218013,168187,6974,2.13526445,1764,0.5400927
2023-11-30 18:14:13.722,92685,218026,168193,-4001,-1.225006175,1709,0.523253075
2023-11-30 18:14:13.722,92686,218032,168189,-27,-0.008266725,1592,0.4874306
2023-11-30 18:14:13.722,92687,218055,168201,8615,2.637697625,1707,0.522640725
2023-11-30 18:14:13.722,92688,218071,168215,-449,-0.137472575,1748,0.5351939
2023-11-30 18:14:13.752,92689,218087,168210,-3770,-1.15427975,1610,0.49294175
2023-11-30 18:14:13.752,92690,218125,168232,7414,2.26998145,1666,0.51008755
2023-11-30 18:14:13.752,92691,218139,168221,3852,1.1793861,1790,0.54805325
2023-11-30 18:14:13.752,92692,218171,168241,-5278,-1.61599165,1688,0.5168234
2023-11-30 18:14:13.752,92693,218184,168239,4109,1.258073075,1664,0.5094752
2023-11-30 18:14:13.752,92694,218234,168253,7445,2.279472875,1819,0.556932325
2023-11-30 18:14:13.783,92695,218257,168257,-3661,-1.120906675,1782,0.54560385
2023-11-30 18:14:13.783,92696,218302,168287,-336,-0.1028748,1671,0.511618425
2023-11-30 18:14:13.783,92697,218333,168279,8852,2.7102611,1798,0.55050265
2023-11-30 18:14:13.783,92698,218373,168299,-118,-0.03612865,1862,0.57009785
2023-11-30 18:14:13.783,92699,218434,168315,-3978,-1.21796415,1731,0.529988925
2023-11-30 18:14:13.783,92700,218467,168343,7630,2.33611525,1780,0.5449915
2023-11-30 18:14:13.814,92701,218503,168339,4287,1.312572225,1896,0.5805078
2023-11-30 18:14:13.814,92702,218540,168364,-5375,-1.645690625,1775,0.543460625
2023-11-30 18:14:13.814,92703,218578,168362,3856,1.1806108,1719,0.526314825
2023-11-30 18:14:13.814,92704,218618,168375,7628,2.3355029,1854,0.56764845
2023-11-30 18:14:13.814,92705,218633,168393,-3611,-1.105597925,1812,0.5547891
2023-11-30 18:14:13.814,92706,218679,168417,-812,-0.2486141,1691,0.517741925
2023-11-30 18:14:13.814,92707,218709,168429,8285,2.536659875,1805,0.552645875
2023-11-30 18:14:13.814,92708,218740,168446,4,0.0012247,1855,0.567954625
2023-11-30 18:14:13.845,92709,218767,168435,-4373,-1.338903275,1703,0.521416025
2023-11-30 18:14:13.845,92710,218802,168448,6502,1.99074985,1734,0.53090745
2023-11-30 18:14:13.845,92711,218826,168454,4203,1.286853525,1859,0.569179325
2023-11-30 18:14:13.845,92712,218840,168454,-5131,-1.570983925,1759,0.538561825
2023-11-30 18:14:13.845,92713,218870,168465,3124,0.9564907,1717,0.525702475
2023-11-30 18:14:13.845,92714,218894,168470,7112,2.1775166,1877,0.574690475
2023-11-30 18:14:13.845,92715,218913,168481,-3303,-1.011296025,1860,0.5694855
2023-11-30 18:14:13.876,92716,218921,168486,-1159,-0.354856825,1747,0.534887725
2023-11-30 18:14:13.876,92717,218958,168495,7953,2.435009775,1868,0.5719349
2023-11-30 18:14:13.876,92718,218975,168492,282,0.08634135,1938,0.59336715
2023-11-30 18:14:13.876,92719,218980,168506,-4516,-1.3826863,1798,0.55050265
2023-11-30 18:14:13.876,92720,218983,168499,6339,1.940843325,1832,0.5609126
2023-11-30 18:14:13.907,92721,219032,168517,4472,1.3692146,1966,0.60194005
2023-11-30 18:14:13.907,92722,219016,168513,-5352,-1.6386486,1864,0.5707102
2023-11-30 18:14:13.907,92723,219033,168518,2570,0.78686975,1779,0.544685325
2023-11-30 18:14:13.907,92724,219066,168526,7135,2.184558625,1915,0.586325125
2023-11-30 18:14:13.907,92725,219057,168538,-3330,-1.01956275,1860,0.5694855
2023-11-30 18:14:13.907,92726,219077,168541,-1619,-0.495697325,1656,0.5070258
2023-11-30 18:14:13.937,92727,219106,168544,7737,2.368875975,1759,0.538561825
2023-11-30 18:14:13.937,92728,219114,168541,612,0.1873791,1781,0.545297675
2023-11-30 18:14:13.937,92729,219123,168553,-4923,-1.507299525,1605,0.491410875
2023-11-30 18:14:13.937,92730,219126,168562,5775,1.768160625,1601,0.490186175
2023-11-30 18:14:13.937,92731,219159,168562,4471,1.368908425,1698,0.51988515
2023-11-30 18:14:13.937,92732,219164,168563,-5268,-1.6129299,1569,0.480388575
2023-11-30 18:14:13.969,92733,219175,168581,2389,0.731452075,1479,0.452832825
2023-11-30 18:14:13.969,92734,219167,168566,7587,2.322949725,1598,0.48926765
2023-11-30 18:14:13.969,92735,219195,168570,-3127,-0.957409225,1566,0.47947005
2023-11-30 18:14:13.969,92736,219194,168578,-1961,-0.600409175,1426,0.43660555
2023-11-30 18:14:13.969,92737,219200,168573,8177,2.503592975,1513,0.463242775
2023-11-30 18:14:14.000,92738,219217,168571,1098,0.33618015,1582,0.48436885
