Time, Sample Count, IR Count, Red Count, Raw ECG, Raw ECG (mV), Filtered ECG, Filtered ECG (mV)
2023-11-30 18:11:59.635,79333,208474,165328,-11592,-3.5491806,3684,1.1279487
2023-11-30 18:11:59.666,79334,208557,165362,-111,-0.033985425,3422,1.04773085
2023-11-30 18:11:59.666,79335,208687,165412,5465,1.673246375,3367,1.030891225
2023-11-30 18:11:59.666,79336,208794,165438,-6858,-2.09974815,3148,0.9638389
2023-11-30 18:11:59.666,79337,208916,165471,-6674,-2.04341195,2716,0.8315713
2023-11-30 18:11:59.696,79338,208975,165499,5809,1.778570575,2508,0.7678869
2023-11-30 18:11:59.696,79339,209034,165526,-288,-0.0881784,2279,0.697772825
2023-11-30 18:11:59.696,79340,209049,165518,-10114,-3.09665395,1758,0.53825565
2023-11-30 18:11:59.696,79341,209007,165496,4873,1.491990775,1404,0.4298697
2023-11-30 18:11:59.696,79342,208859,165424,4620,1.4145285,1204,0.3686347
2023-11-30 18:11:59.716,79343,208592,165302,-9181,-2.810992675,763,0.233611525
2023-11-30 18:11:59.716,79344,208149,165121,1431,0.438136425,292,0.0894031
2023-11-30 18:11:59.716,79345,207598,164901,6928,2.1211804,112,0.0342916
2023-11-30 18:11:59.716,79346,206966,164685,-4235,-1.296651125,-191,-0.058479425
2023-11-30 18:11:59.747,79347,206368,164459,-4423,-1.354212025,-684,-0.2094237
2023-11-30 18:11:59.747,79348,205798,164272,7825,2.395819375,-894,-0.27372045
2023-11-30 18:11:59.747,79349,205303,164115,2000,0.61235,-1081,-0.330975175
2023-11-30 18:11:59.747,79350,204781,163918,-8381,-2.566052675,-1507,-0.461405725
2023-11-30 18:11:59.778,79351,204274,163750,6285,1.924309875,-1672,-0.5119246
2023-11-30 18:11:59.778,79352,203808,163851,5962,1.82541535,-1607,-0.492023225
2023-11-30 18:11:59.778,79353,203460,163728,-7442,-2.27855435,-1776,-0.5437668
2023-11-30 18:11:59.778,79354,203130,163626,1920,0.587856,-1943,-0.594898025
2023-11-30 18:11:59.778,79355,202830,163515,7579,2.320500325,-1811,-0.554482925
2023-11-30 18:11:59.778,79356,202546,163434,-2292,-0.7017531,-1793,-0.548971775
2023-11-30 18:11:59.808,79357,202276,163356,-3805,-1.164995875,-1949,-0.596735075
2023-11-30 18:11:59.808,79358,202046,163269,7911,2.422150425,-1793,-0.548971775
2023-11-30 18:11:59.808,79359,201830,163208,3589,1.098862075,-1580,-0.4837565
2023-11-30 18:11:59.808,79360,201627,163149,-7177,-2.197417975,-1611,-0.493247925
2023-11-30 18:11:59.808,79361,201475,163102,6522,1.99687335,-1435,-0.439361125
2023-11-30 18:11:59.808,79362,201326,163050,6982,2.13771385,-1080,-0.330669
2023-11-30 18:11:59.808,79363,201237,163037,-5791,-1.773059425,-982,-0.30066385
2023-11-30 18:11:59.840,79364,201136,163008,2524,0.7727857,-891,-0.272801925
2023-11-30 18:11:59.840,79365,201091,163005,8281,2.535435175,-514,-0.15737395
2023-11-30 18:11:59.840,79366,201061,162996,-458,-0.14022815,-276,-0.0845043
2023-11-30 18:11:59.840,79367,201023,163000,-2724,-0.8340207,-259,-0.079299325
2023-11-30 18:11:59.840,79368,201016,162998,8735,2.674438625,18,0.00551115
2023-11-30 18:11:59.840,79369,201024,163005,5078,1.55475665,313,0.095832775
2023-11-30 18:11:59.871,79370,201042,163015,-5858,-1.79357315,313,0.095832775
2023-11-30 18:11:59.871,79371,201069,163025,7121,2.180272175,445,0.136247875
2023-11-30 18:11:59.871,79372,201088,163027,8031,2.458891425,716,0.2192213
2023-11-30 18:11:59.871,79373,201105,163047,-3962,-1.21306535,730,0.22350775
2023-11-30 18:11:59.871,79374,201095,163037,3385,1.036402375,707,0.216465725
2023-11-30 18:11:59.871,79375,201115,163051,9408,2.8804944,944,0.2890292
2023-11-30 18:11:59.871,79376,201141,163048,1365,0.417928875,1069,0.327301075
2023-11-30 18:11:59.871,79377,201142,163052,-1835,-0.561831125,995,0.304644125
2023-11-30 18:11:59.902,79378,201147,163043,9559,2.926726825,1177,0.360367975
2023-11-30 18:11:59.902,79379,201125,163045,6542,2.00299685,1385,0.424052375
2023-11-30 18:11:59.902,79380,201115,163031,-4577,-1.401362975,1322,0.40476335
2023-11-30 18:11:59.902,79381,201124,163035,8358,2.55901065,1397,0.427726475
2023-11-30 18:11:59.902,79382,201135,163027,9245,2.830587875,1646,0.50396405
2023-11-30 18:11:59.902,79383,201113,163038,-2360,-0.722573,1687,0.516517225
2023-11-30 18:11:59.902,79384,201118,163037,4213,1.289915275,1688,0.5168234
2023-11-30 18:11:59.934,79385,201112,163035,9970,3.05256475,1946,0.59581655
2023-11-30 18:11:59.934,79386,201114,163035,2945,0.901685375,2109,0.645723075
2023-11-30 18:11:59.934,79387,201112,163024,-818,-0.25045115,2059,0.630414325
2023-11-30 18:11:59.934,79388,201102,163042,10493,3.212694275,2239,0.685525825
2023-11-30 18:11:59.934,79389,201096,163031,7555,2.313152125,2467,0.755333725
2023-11-30 18:11:59.965,79390,201115,163045,-3186,-0.97547355,2440,0.747067
2023-11-30 18:11:59.965,79391,201116,163031,9414,2.88233145,2533,0.775541275
2023-11-30 18:11:59.965,79392,201134,163048,10228,3.1315579,2800,0.85729
2023-11-30 18:11:59.965,79393,201174,163057,-604,-0.1849297,2872,0.8793346
2023-11-30 18:11:59.965,79394,201200,163058,5163,1.580781525,2880,0.881784
2023-11-30 18:11:59.965,79395,201239,163065,11189,3.425792075,3131,0.958633925
2023-11-30 18:11:59.965,79396,201248,163074,4706,1.44085955,3300,1.0103775
2023-11-30 18:12:00.006,79397,201292,163087,109,0.033373075,3255,0.996599625
2023-11-30 18:12:00.006,79398,201279,163086,11257,3.446611975,3435,1.051711125
2023-11-30 18:12:00.006,79399,201328,163094,9253,2.833037275,3675,1.125193125
2023-11-30 18:12:00.006,79400,201345,163104,-1870,-0.57254725,3669,1.123356075
2023-11-30 18:12:00.006,79401,201373,163107,9660,2.9576505,3760,1.151218
2023-11-30 18:12:00.006,79402,201432,163122,10729,3.284951575,4016,1.2295988
2023-11-30 18:12:00.037,79403,201442,163153,655,0.200544625,4083,1.250112525
2023-11-30 18:12:00.037,79404,201488,163147,5440,1.665592,4073,1.247050775
2023-11-30 18:12:00.037,79405,201518,163164,11287,3.455797225,4297,1.315633975
2023-11-30 18:12:00.037,79406,201529,163169,5689,1.741829575,4449,1.362172575
2023-11-30 18:12:00.037,79407,201559,163186,596,0.1824803,4395,1.345639125
2023-11-30 18:12:00.037,79408,201573,163200,11646,3.56571405,4568,1.3986074
2023-11-30 18:12:00.037,79409,201588,163202,9446,2.89212905,4808,1.4720894
2023-11-30 18:12:00.037,79410,201600,163207,-1319,-0.403844825,4808,1.4720894
2023-11-30 18:12:00.068,79411,201650,163212,10031,3.071241425,4894,1.49842045
2023-11-30 18:12:00.068,79412,201673,163230,11147,3.412932725,5152,1.5774136
2023-11-30 18:12:00.068,79413,201712,163236,1495,0.457731625,5242,1.60496935
2023-11-30 18:12:00.068,79414,201752,163244,5449,1.668347575,5246,1.60619405
2023-11-30 18:12:00.068,79415,201769,163243,11883,3.638277525,5476,1.6766143
2023-11-30 18:12:00.068,79416,201760,163244,6807,2.084133225,5654,1.73111345
2023-11-30 18:12:00.068,79417,201739,163251,711,0.217690425,5625,1.722234375
2023-11-30 18:12:00.100,79418,201746,163254,11532,3.5308101,5782,1.77030385
2023-11-30 18:12:00.100,79419,201765,163234,10206,3.12482205,5983,1.831845025
2023-11-30 18:12:00.100,79420,201784,163241,-493,-0.150944275,5945,1.820210375
2023-11-30 18:12:00.100,79421,201796,163256,10113,3.096347775,5974,1.82908945
2023-11-30 18:12:00.100,79422,201824,163260,11373,3.482128275,6161,1.886344175
2023-11-30 18:12:00.100,79423,201859,163276,2622,0.80279085,6185,1.893692375
2023-11-30 18:12:00.100,79424,201879,163283,5821,1.782244675,6114,1.87195395
2023-11-30 18:12:00.100,79425,201898,163287,12215,3.739927625,6270,1.91971725
2023-11-30 18:12:00.100,79426,201947,163304,7350,2.25038625,6378,1.95278415
2023-11-30 18:12:00.131,79427,201968,163315,1089,0.333424575,6274,1.92094195
2023-11-30 18:12:00.131,79428,201982,163337,12539,3.839128325,6358,1.94666065
2023-11-30 18:12:00.131,79429,202031,163347,10890,3.33424575,6514,1.99442395
2023-11-30 18:12:00.131,79430,202086,163366,78,0.02388165,6451,1.975134925
2023-11-30 18:12:00.131,79431,202104,163362,11307,3.461920725,6443,1.972685525
2023-11-30 18:12:00.131,79432,202132,163365,13270,4.06294225,6613,2.024735275
2023-11-30 18:12:00.131,79433,202169,163386,5459,1.671409325,6654,2.03728845
2023-11-30 18:12:00.131,79434,202201,163393,7910,2.42184425,6591,2.017999425
2023-11-30 18:12:00.162,79435,202217,163405,13891,4.253076925,6732,2.0611701
2023-11-30 18:12:00.162,79436,202263,163415,10648,3.2601514,6835,2.092706125
2023-11-30 18:12:00.162,79437,202295,163438,3401,1.041301175,6739,2.063313325
2023-11-30 18:12:00.162,79438,202349,163437,14404,4.4101447,6818,2.08750115
2023-11-30 18:12:00.162,79439,202380,163456,14103,4.317986025,6968,2.1334274
2023-11-30 18:12:00.162,79440,202446,163482,3973,1.216433275,6916,2.1175063
2023-11-30 18:12:00.191,79441,202510,163517,13899,4.255526325,6921,2.119037175
2023-11-30 18:12:00.191,79442,202570,163536,14927,4.570274225,7103,2.174761025
2023-11-30 18:12:00.191,79443,202639,163577,8330,2.55043775,7145,2.187620375
2023-11-30 18:12:00.191,79444,202736,163601,9907,3.033275725,7066,2.16343255
2023-11-30 18:12:00.191,79445,202832,163640,16312,4.9943266,7211,2.207827925
2023-11-30 18:12:00.191,79446,202924,163664,13346,4.08621155,7342,2.24793685
2023-11-30 18:12:00.191,79447,203025,163702,5666,1.73478755,7272,2.2265046
2023-11-30 18:12:00.191,79448,203099,163733,16823,5.150782025,7386,2.26140855
2023-11-30 18:12:00.233,79449,203204,163756,15756,4.8240933,7622,2.33366585
2023-11-30 18:12:00.233,79450,203262,163779,5611,1.717947925,7708,2.3599969
2023-11-30 18:12:00.233,79451,203300,163791,14793,4.529246775,7854,2.40469845
2023-11-30 18:12:00.233,79452,203330,163798,16131,4.938908925,8180,2.5045115
2023-11-30 18:12:00.233,79453,203389,163804,9263,2.836099025,8402,2.57248235
2023-11-30 18:12:00.233,79454,203393,163815,9714,2.97418395,8519,2.608304825
2023-11-30 18:12:00.233,79455,203434,163812,16284,4.9857537,8844,2.7078117
2023-11-30 18:12:00.264,79456,203433,163824,13779,4.218785325,9160,2.804563
2023-11-30 18:12:00.264,79457,203472,163835,5434,1.66375495,9300,2.8474275
2023-11-30 18:12:00.264,79458,203499,163844,16531,5.061378925,9614,2.94356645
2023-11-30 18:12:00.264,79459,203560,163870,15974,4.89083945,10008,3.0641994
2023-11-30 18:12:00.264,79460,203574,163868,5390,1.65028325,10208,3.1254344
2023-11-30 18:12:00.264,79461,203628,163893,14177,4.340642975,10415,3.188812625
2023-11-30 18:12:00.264,79462,203697,163925,15929,4.877061575,10771,3.297810925
2023-11-30 18:12:00.264,79463,203753,163944,9363,2.866716525,11008,3.3703744
2023-11-30 18:12:00.264,79464,203816,163972,9096,2.7849678,11099,3.398236325
2023-11-30 18:12:00.296,79465,203888,163979,16219,4.965852325,11385,3.485802375
2023-11-30 18:12:00.296,79466,203926,163997,13491,4.130606925,11671,3.573368425
2023-11-30 18:12:00.296,79467,203962,164018,4872,1.4916846,11754,3.59878095
2023-11-30 18:12:00.296,79468,204035,164036,16057,4.916251975,11954,3.66001595
2023-11-30 18:12:00.296,79469,204093,164037,15539,4.757653325,12207,3.737478225
2023-11-30 18:12:00.296,79470,204144,164066,5141,1.574045675,12253,3.751562275
2023-11-30 18:12:00.296,79471,204211,164083,13300,4.0721275,12259,3.753399325
2023-11-30 18:12:00.296,79472,204269,164113,15620,4.7824535,12394,3.79473295
2023-11-30 18:12:00.296,79473,204311,164127,9489,2.905294575,12423,3.803612025
2023-11-30 18:12:00.327,79474,204398,164144,8268,2.5314549,12312,3.7696266
2023-11-30 18:12:00.327,79475,204454,164168,16071,4.920538425,12393,3.794426775
2023-11-30 18:12:00.327,79476,204499,164200,13709,4.197353075,12472,3.8186146
2023-11-30 18:12:00.327,79477,204558,164216,4356,1.3336983,12340,3.7781995
2023-11-30 18:12:00.327,79478,204610,164214,15745,4.820725375,12323,3.772994525
2023-11-30 18:12:00.358,79479,204628,164230,15349,4.699480075,12395,3.795039125
2023-11-30 18:12:00.358,79480,204668,164234,5322,1.62946335,12303,3.766871025
2023-11-30 18:12:00.358,79481,204716,164252,12986,3.97598855,12207,3.737478225
2023-11-30 18:12:00.358,79482,204741,164250,15552,4.7616336,12284,3.7610537
2023-11-30 18:12:00.358,79483,204766,164262,8666,2.65331255,12275,3.758298125
2023-11-30 18:12:00.358,79484,204811,164289,6459,1.977584325,12114,3.70900395
2023-11-30 18:12:00.358,79485,204884,164308,15522,4.75244835,12146,3.71880155
2023-11-30 18:12:00.389,79486,204946,164325,12586,3.85351855,12190,3.73227325
2023-11-30 18:12:00.389,79487,205022,164346,2866,0.87749755,12029,3.682979075
2023-11-30 18:12:00.389,79488,205080,164377,15399,4.714788825,11984,3.6692012
2023-11-30 18:12:00.389,79489,205142,164392,15566,4.76592005,12043,3.687265525
2023-11-30 18:12:00.389,79490,205222,164427,5655,1.731419625,11944,3.6569542
2023-11-30 18:12:00.389,79491,205278,164451,13048,3.9949714,11829,3.621744075
2023-11-30 18:12:00.421,79492,205368,164483,16080,4.923294,11897,3.642563975
2023-11-30 18:12:00.421,79493,205426,164508,9796,2.9992903,11897,3.642563975
2023-11-30 18:12:00.421,79494,205535,164543,7040,2.155472,11746,3.59633155
2023-11-30 18:12:00.421,79495,205642,164581,16492,5.0494381,11788,3.6091909
2023-11-30 18:12:00.421,79496,205717,164610,13435,4.113461125,11852,3.6287861
2023-11-30 18:12:00.452,79497,205791,164625,3635,1.112946125,11716,3.5871463
2023-11-30 18:12:00.452,79498,205813,164629,15969,4.889308575,11699,3.581941325
2023-11-30 18:12:00.452,79499,205863,164648,15284,4.6795787,11791,3.610109425
2023-11-30 18:12:00.452,79500,205915,164648,4913,1.504237775,11699,3.581941325
2023-11-30 18:12:00.452,79501,205952,164696,11692,3.5797981,11541,3.533565675
2023-11-30 18:12:00.452,79502,206034,164703,15843,4.850730525,11558,3.53877065
2023-11-30 18:12:00.482,79503,206099,164715,9696,2.9686728,11492,3.5185631
2023-11-30 18:12:00.482,79504,206180,164737,6145,1.881445375,11246,3.44324405
2023-11-30 18:12:00.482,79505,206244,164772,16120,4.935541,11211,3.432527925
2023-11-30 18:12:00.482,79506,206310,164778,13944,4.2693042,11245,3.442937875
2023-11-30 18:12:00.482,79507,206329,164798,3406,1.04283205,11115,3.403135125
2023-11-30 18:12:00.482,79508,206384,164809,15075,4.615588125,11120,3.404666
2023-11-30 18:12:00.513,79509,206444,164842,15253,4.670087275,11262,3.44814285
2023-11-30 18:12:00.513,79510,206493,164844,5402,1.65395735,11254,3.44569345
2023-11-30 18:12:00.513,79511,206568,164885,11112,3.4022166,11214,3.43344645
2023-11-30 18:12:00.513,79512,206622,164908,15589,4.772962075,11382,3.48488385
2023-11-30 18:12:00.513,79513,206696,164929,9910,3.03419425,11474,3.51305195
2023-11-30 18:12:00.513,79514,206757,164938,5799,1.775508825,11393,3.488251775
2023-11-30 18:12:00.513,79515,206822,164986,15877,4.861140475,11530,3.53019775
2023-11-30 18:12:00.513,79516,206912,165005,13755,4.211437125,11697,3.581328975
2023-11-30 18:12:00.544,79517,207004,165022,3094,0.94730545,11615,3.556222625
2023-11-30 18:12:00.544,79518,207102,165056,14685,4.496179875,11584,3.5467312
2023-11-30 18:12:00.544,79519,207184,165086,15208,4.6563094,11651,3.567244925
2023-11-30 18:12:00.544,79520,207260,165116,5250,1.60741875,11538,3.53264715
2023-11-30 18:12:00.544,79521,207306,165125,10408,3.1866694,11358,3.47753565
2023-11-30 18:12:00.544,79522,207364,165138,15934,4.87859245,11392,3.4879456
2023-11-30 18:12:00.544,79523,207379,165144,10268,3.1438049,11393,3.488251775
2023-11-30 18:12:00.574,79524,207325,165110,5267,1.612623725,11241,3.441713175
2023-11-30 18:12:00.574,79525,207219,165057,16356,5.0077983,11295,3.458246625
2023-11-30 18:12:00.574,79526,206991,164955,14095,4.315536625,11383,3.485190025
2023-11-30 18:12:00.574,79527,206673,164821,2904,0.8891322,11252,3.4450811
2023-11-30 18:12:00.574,79528,206225,164657,14557,4.456989475,11206,3.43099705
2023-11-30 18:12:00.615,79529,205721,164473,15716,4.8118463,11297,3.458858975
2023-11-30 18:12:00.615,79530,205249,164307,5249,1.607112575,11237,3.440488475
2023-11-30 18:12:00.615,79531,204776,164147,9485,2.904069875,11116,3.4034413
2023-11-30 18:12:00.615,79532,204257,163966,16159,4.947481825,11213,3.433140275
2023-11-30 18:12:00.615,79533,203759,163808,9777,2.993472975,11256,3.4463058
2023-11-30 18:12:00.615,79534,203337,163656,3562,1.09059535,11093,3.396399275
2023-11-30 18:12:00.615,79535,202921,163521,14649,4.485157575,11111,3.401910425
2023-11-30 18:12:00.641,79536,202560,163385,13087,4.006912225,11184,3.4242612
2023-11-30 18:12:00.641,79537,202209,163274,1657,0.507331975,11046,3.38200905
2023-11-30 18:12:00.641,79538,201878,163152,12707,3.890565725,10987,3.363944725
2023-11-30 18:12:00.641,79539,201552,163052,13791,4.222459425,11094,3.39670545
2023-11-30 18:12:00.641,79540,201274,162974,4480,1.371664,11063,3.387214025
2023-11-30 18:12:00.641,79541,200980,162887,8027,2.457666725,10949,3.352310075
2023-11-30 18:12:00.677,79542,200742,162812,14315,4.382895125,11053,3.384152275
2023-11-30 18:12:00.677,79543,200480,162725,9505,2.910193375,11118,3.40405365
2023-11-30 18:12:00.677,79544,200282,162661,3124,0.9564907,10982,3.36241385
2023-11-30 18:12:00.677,79545,200090,162608,14500,4.4395375,11035,3.378641125
2023-11-30 18:12:00.677,79546,199935,162574,12915,3.954250125,11159,3.416606825
2023-11-30 18:12:00.708,79547,199814,162523,1812,0.5547891,11056,3.3850708
2023-11-30 18:12:00.708,79548,199692,162492,12898,3.94904515,11001,3.368231175
2023-11-30 18:12:00.708,79549,199621,162471,13990,4.28338825,11107,3.400685725
2023-11-30 18:12:00.708,79550,199574,162461,5254,1.60864345,11052,3.3838461
2023-11-30 18:12:00.708,79551,199530,162442,8059,2.467464325,10862,3.32567285
2023-11-30 18:12:00.708,79552,199478,162443,14412,4.4125941,10863,3.325979025
2023-11-30 18:12:00.739,79553,199480,162435,10090,3.08930575,10809,3.309445575
2023-11-30 18:12:00.739,79554,199491,162436,3220,0.9858835,10534,3.22524745
2023-11-30 18:12:00.739,79555,199495,162445,14792,4.5289406,10428,3.1927929
2023-11-30 18:12:00.739,79556,199529,162448,13164,4.0304877,10384,3.1793212
2023-11-30 18:12:00.739,79557,199537,162445,2210,0.67664675,10127,3.100634225
2023-11-30 18:12:00.739,79558,199554,162456,13150,4.02620125,9939,3.043073325
2023-11-30 18:12:00.771,79559,199564,162465,14706,4.50260955,9939,3.043073325
2023-11-30 18:12:00.771,79560,199585,162469,5802,1.77642735,9807,3.002658225
2023-11-30 18:12:00.771,79561,199601,162459,8037,2.460728475,9580,2.9331565
2023-11-30 18:12:00.771,79562,199605,162475,15788,4.8338909,9605,2.940810875
2023-11-30 18:12:00.771,79563,199637,162492,10602,3.24606735,9630,2.94846525
2023-11-30 18:12:00.801,79564,199677,162499,2875,0.880253125,9467,2.898558725
2023-11-30 18:12:00.801,79565,199723,162509,15137,4.634570975,9500,2.9086625
2023-11-30 18:12:00.801,79566,199761,162524,13825,4.232869375,9633,2.949383775
2023-11-30 18:12:00.801,79567,199791,162535,2270,0.69501725,9573,2.931013275
2023-11-30 18:12:00.801,79568,199850,162571,12360,3.784323,9553,2.924889775
2023-11-30 18:12:00.801,79569,199895,162578,14928,4.5705804,9699,2.969591325
2023-11-30 18:12:00.832,79570,199930,162588,6285,1.924309875,9716,2.9747963
2023-11-30 18:12:00.832,79571,199982,162596,7393,2.263551775,9615,2.943872625
2023-11-30 18:12:00.832,79572,200017,162619,15640,4.788577,9736,2.9809198
2023-11-30 18:12:00.832,79573,200081,162624,11274,3.45181695,9837,3.011843475
2023-11-30 18:12:00.832,79574,200113,162643,2946,0.90199155,9728,2.9784704
2023-11-30 18:12:00.832,79575,200141,162649,15356,4.7016233,9793,2.998371775
2023-11-30 18:12:00.863,79576,200196,162657,14530,4.44872275,9948,3.0458289
2023-11-30 18:12:00.863,79577,200264,162688,2659,0.814119325,9899,3.030826325
2023-11-30 18:12:00.863,79578,200331,162705,12323,3.772994525,9881,3.025315175
2023-11-30 18:12:00.863,79579,200382,162732,15598,4.77571765,10057,3.079201975
2023-11-30 18:12:00.863,79580,200486,162754,6566,2.01034505,10115,3.096960125
2023-11-30 18:12:00.863,79581,200546,162773,6874,2.10464695,10025,3.069404375
2023-11-30 18:12:00.863,79582,200629,162807,16212,4.9637091,10145,3.106145375
2023-11-30 18:12:00.894,79583,200691,162817,11588,3.5479559,10252,3.1389061
2023-11-30 18:12:00.894,79584,200770,162853,2509,0.768193075,10136,3.1033898
2023-11-30 18:12:00.894,79585,200823,162863,15699,4.806641325,10166,3.11257505
2023-11-30 18:12:00.894,79586,200901,162896,14494,4.43770045,10284,3.1487037
2023-11-30 18:12:00.894,79587,200976,162922,2497,0.764518975,10200,3.122985
2023-11-30 18:12:00.894,79588,201074,162944,12109,3.707473075,10133,3.102471275
2023-11-30 18:12:00.894,79589,201113,162977,16007,4.900943225,10257,3.140436975
2023-11-30 18:12:00.925,79590,201162,162987,6727,2.059639225,10261,3.141661675
2023-11-30 18:12:00.925,79591,201215,163015,6112,1.8713416,10125,3.100021875
2023-11-30 18:12:00.925,79592,201292,163014,16374,5.01330945,10228,3.1315579
2023-11-30 18:12:00.925,79593,201339,163025,11669,3.572756075,10342,3.16646185
2023-11-30 18:12:00.925,79594,201395,163054,2034,0.62275995,10231,3.132476425
2023-11-30 18:12:00.925,79595,201476,163091,15830,4.84675025,10276,3.1462543
2023-11-30 18:12:00.956,79596,201562,163111,15020,4.5987485,10442,3.19707935
2023-11-30 18:12:00.956,79597,201659,163145,2411,0.738187925,10398,3.18360765
2023-11-30 18:12:00.956,79598,201737,163154,11491,3.518256925,10339,3.165543325
2023-11-30 18:12:00.956,79599,201813,163197,16767,5.133636225,10481,3.209020175
2023-11-30 18:12:00.956,79600,201913,163228,7118,2.17935365,10509,3.217593075
2023-11-30 18:12:00.956,79601,201993,163266,5533,1.694066275,10371,3.175340925
2023-11-30 18:12:00.956,79602,202089,163298,16587,5.078524725,10466,3.20442755
2023-11-30 18:12:00.987,79603,202234,163333,12133,3.714821275,10568,3.2356574
2023-11-30 18:12:00.987,79604,202341,163395,1496,0.4580378,10422,3.19095585
2023-11-30 18:12:00.987,79605,202465,163440,14884,4.5571087,10420,3.1903435
2023-11-30 18:12:00.987,79606,202588,163481,15091,4.620486925,11407,3.492538225
2023-11-30 18:12:00.987,79607,202717,163531,2471,0.756558425,11326,3.46773805
2023-11-30 18:12:00.987,79608,202864,163581,10385,3.179627375,11140,3.4107895
2023-11-30 18:12:01.019,79609,203000,163615,16182,4.95452385,11088,3.3948684
2023-11-30 18:12:01.019,79610,203081,163656,7030,2.15241025,11061,3.386601675
2023-11-30 18:12:01.019,79611,203215,163686,4545,1.391565375,10876,3.3299593
2023-11-30 18:12:01.019,79612,203320,163716,16416,5.0261688,10783,3.301485025
2023-11-30 18:12:01.019,79613,203426,163760,12234,3.74574495,10800,3.30669
2023-11-30 18:12:01.050,79614,203543,163812,931,0.285048925,10661,3.264131675
2023-11-30 18:12:01.050,79615,203652,163852,14453,4.425147275,10516,3.2197363
2023-11-30 18:12:01.050,79616,203801,163900,15201,4.654166175,10530,3.22402275
2023-11-30 18:12:01.050,79617,203934,163938,2299,0.703896325,10473,3.206570775
2023-11-30 18:12:01.050,79618,204089,164002,9779,2.994085325,10376,3.1768718
2023-11-30 18:12:01.050,79619,204217,164039,16614,5.08679145,10511,3.218205425
2023-11-30 18:12:01.050,79620,204349,164094,7201,2.204766175,10543,3.228003025
2023-11-30 18:12:01.080,79621,204467,164133,3731,1.142338925,10377,3.177177975
2023-11-30 18:12:01.080,79622,204554,164164,16243,4.973200525,10440,3.196467
2023-11-30 18:12:01.080,79623,204639,164194,12406,3.79840705,10524,3.2221857
2023-11-30 18:12:01.080,79624,204730,164212,553,0.169314775,10347,3.167992725
2023-11-30 18:12:01.080,79625,204823,164232,14062,4.30543285,10296,3.1523778
2023-11-30 18:12:01.080,79626,204886,164253,15394,4.71325795,10399,3.183913825
2023-11-30 18:12:01.111,79627,204970,164271,2271,0.695323425,10279,3.147172825
2023-11-30 18:12:01.111,79628,205030,164276,8965,2.744858875,10107,3.094510725
2023-11-30 18:12:01.111,79629,205070,164299,16641,5.095058175,10197,3.122066475
2023-11-30 18:12:01.111,79630,205091,164299,7181,2.198642675,10202,3.12359735
2023-11-30 18:12:01.111,79631,205154,164321,3103,0.950061025,10000,3.06175
2023-11-30 18:12:01.141,79632,205184,164318,16607,5.084648225,10037,3.073078475
2023-11-30 18:12:01.141,79633,205225,164336,12474,3.81922695,10132,3.1021651
2023-11-30 18:12:01.141,79634,205271,164344,161,0.049294175,9966,3.05134005
2023-11-30 18:12:01.141,79635,205283,164340,13967,4.276346225,9919,3.036949825
2023-11-30 18:12:01.141,79636,205328,164359,15552,4.7616336,10060,3.0801205
2023-11-30 18:12:01.141,79637,205354,164374,2292,0.7017531,9994,3.05991295
2023-11-30 18:12:01.172,79638,205396,164402,8279,2.534822825,9853,3.016742275
2023-11-30 18:12:01.172,79639,205454,164419,16498,5.05127515,9970,3.05256475
2023-11-30 18:12:01.172,79640,205549,164444,7193,2.202316775,10004,3.0629747
2023-11-30 18:12:01.172,79641,205584,164471,2387,0.730839725,9813,3.004495275
2023-11-30 18:12:01.172,79642,205674,164490,16191,4.957279425,9859,3.018579325
2023-11-30 18:12:01.172,79643,205733,164499,12337,3.777280975,9971,3.052870925
2023-11-30 18:12:01.202,79644,205783,164514,-258,-0.07899315,9809,3.003270575
2023-11-30 18:12:01.202,79645,205802,164520,13365,4.092028875,9751,2.985512425
2023-11-30 18:12:01.202,79646,205860,164526,15367,4.704991225,9891,3.028376925
2023-11-30 18:12:01.202,79647,205890,164535,2122,0.64970335,9818,3.00602615
2023-11-30 18:12:01.202,79648,205947,164550,7605,2.328460875,9660,2.9576505
2023-11-30 18:12:01.202,79649,205970,164566,16789,5.140372075,9782,2.99500385
2023-11-30 18:12:01.202,79650,206007,164582,7482,2.29080135,9831,3.010006425
2023-11-30 18:12:01.232,79651,206043,164581,1794,0.54927795,9638,2.95091465
2023-11-30 18:12:01.232,79652,206071,164584,15942,4.88104185,9688,2.9662234
2023-11-30 18:12:01.232,79653,206092,164610,12568,3.8480074,9824,3.0078632
2023-11-30 18:12:01.232,79654,206099,164603,-328,-0.1004254,9681,2.964080175
2023-11-30 18:12:01.232,79655,206129,164619,12505,3.828718375,9622,2.94601585
2023-11-30 18:12:01.232,79656,206155,164611,15056,4.6097708,9761,2.988574175
2023-11-30 18:12:01.232,79657,206156,164617,2388,0.7311459,9684,2.9649987
2023-11-30 18:12:01.262,79658,206163,164610,6845,2.095767875,9507,2.910805725
2023-11-30 18:12:01.262,79659,206167,164607,16141,4.941970675,9612,2.9429541
2023-11-30 18:12:01.262,79660,206159,164594,7870,2.40959725,9645,2.953057875
2023-11-30 18:12:01.262,79661,206157,164590,1182,0.36189885,9429,2.886924075
2023-11-30 18:12:01.262,79662,206159,164581,15117,4.628447475,9452,2.8939661
2023-11-30 18:12:01.262,79663,206163,164591,12316,3.7708513,9561,2.927339175
2023-11-30 18:12:01.302,79664,206154,164591,-945,-0.289335375,9383,2.872840025
2023-11-30 18:12:01.302,79665,206145,164583,11268,3.4499799,9290,2.84436575
2023-11-30 18:12:01.302,79666,206154,164579,14258,4.36544315,9431,2.887536425
2023-11-30 18:12:01.302,79667,206142,164581,1285,0.393434875,9378,2.87130915
2023-11-30 18:12:01.302,79668,206137,164570,5082,1.55598135,9215,2.821402625
2023-11-30 18:12:01.302,79669,206143,164563,15511,4.749080425,9336,2.8584498
2023-11-30 18:12:01.302,79670,206135,164577,8166,2.50022505,9399,2.877738825
2023-11-30 18:12:01.333,79671,206135,164584,1456,0.4457908,9207,2.818953225
2023-11-30 18:12:01.333,79672,206153,164586,15574,4.76836945,9236,2.8278323
2023-11-30 18:12:01.333,79673,206155,164596,13046,3.99435905,9351,2.863042425
2023-11-30 18:12:01.333,79674,206172,164602,-606,-0.18554205,9186,2.81252355
2023-11-30 18:12:01.333,79675,206201,164599,11214,3.43344645,9091,2.783436925
2023-11-30 18:12:01.333,79676,206206,164619,14767,4.521286225,9224,2.8241582
2023-11-30 18:12:01.363,79677,206238,164634,2580,0.7899315,9162,2.80517535
2023-11-30 18:12:01.363,79678,206257,164632,5413,1.657325275,8973,2.747308275
2023-11-30 18:12:01.363,79679,206279,164639,15781,4.831747675,9064,2.7751702
2023-11-30 18:12:01.363,79680,206292,164646,8315,2.545845125,9100,2.7861925
2023-11-30 18:12:01.363,79681,206291,164654,144,0.0440892,8863,2.713629025
2023-11-30 18:12:01.392,79682,206337,164668,14407,4.411063225,8829,2.703219075
2023-11-30 18:12:01.392,79683,206369,164680,12823,3.926082025,8891,2.722201925
2023-11-30 18:12:01.392,79684,206423,164695,-822,-0.25167585,8665,2.653006375
2023-11-30 18:12:01.392,79685,206476,164720,10829,3.315569075,8482,2.59697635
2023-11-30 18:12:01.392,79686,206553,164742,15511,4.749080425,8548,2.6171839
2023-11-30 18:12:01.392,79687,206601,164769,2828,0.8658629,8466,2.59207755
2023-11-30 18:12:01.392,79688,206673,164782,4707,1.441165725,8280,2.535129
2023-11-30 18:12:01.423,79689,206728,164811,16547,5.066277725,8409,2.574625575
2023-11-30 18:12:01.423,79690,206797,164833,8659,2.651169325,8527,2.610754225
2023-11-30 18:12:01.423,79691,206871,164866,-539,-0.165028325,8388,2.5681959
2023-11-30 18:12:01.423,79692,206946,164901,15263,4.673149025,8453,2.588097275
2023-11-30 18:12:01.423,79693,207022,164913,13636,4.1750023,8635,2.643821125
2023-11-30 18:12:01.423,79694,207095,164956,-953,-0.291784775,8546,2.61657155
2023-11-30 18:12:01.453,79695,207207,164975,10565,3.234738875,8502,2.60309985
2023-11-30 18:12:01.453,79696,207296,165040,16269,4.981161075,8711,2.667090425
2023-11-30 18:12:01.453,79697,207378,165051,3257,0.997211975,8747,2.678112725
2023-11-30 18:12:01.453,79698,207505,165106,4011,1.228067925,8607,2.635248225
2023-11-30 18:12:01.453,79699,207641,165144,16159,4.947481825,8712,2.6673966
2023-11-30 18:12:01.453,79700,207771,165193,8876,2.7176093,8767,2.684236225
2023-11-30 18:12:01.453,79701,207899,165240,-679,-0.207892825,8527,2.610754225
2023-11-30 18:12:01.453,79702,207991,165278,14375,4.401265625,8477,2.595445475
2023-11-30 18:12:01.484,79703,208104,165296,13305,4.073658375,8582,2.62759385
2023-11-30 18:12:01.484,79704,208165,165329,-790,-0.24187825,8449,2.586872575
2023-11-30 18:12:01.484,79705,208209,165336,9885,3.026539875,8367,2.561766225
2023-11-30 18:12:01.484,79706,208223,165328,16005,4.900330875,8573,2.624838275
2023-11-30 18:12:01.484,79707,208148,165313,3380,1.0348715,8617,2.638309975
2023-11-30 18:12:01.484,79708,208006,165228,3362,1.02936035,8462,2.59085285
2023-11-30 18:12:01.484,79709,207734,165111,16356,5.0077983,8582,2.62759385
2023-11-30 18:12:01.514,79710,207343,164959,9297,2.846508975,8701,2.664028675
2023-11-30 18:12:01.514,79711,206828,164754,-1105,-0.338323375,8535,2.613203625
2023-11-30 18:12:01.514,79712,206214,164531,13930,4.26501775,8569,2.623613575
2023-11-30 18:12:01.514,79713,205622,164329,13613,4.167960275,8776,2.6869918
2023-11-30 18:12:01.514,79714,205118,164171,-847,-0.259330225,8708,2.6661719
2023-11-30 18:12:01.544,79715,204633,164009,8657,2.650556975,8620,2.6392285
2023-11-30 18:12:01.544,79716,204195,163858,15191,4.651104425,8777,2.687297975
2023-11-30 18:12:01.544,79717,203749,163697,3501,1.071918675,8755,2.680562125
2023-11-30 18:12:01.544,79718,203368,163575,2554,0.78197095,8544,2.6159592
2023-11-30 18:12:01.544,79719,203043,163476,15094,4.62140545,8631,2.642596425
2023-11-30 18:12:01.544,79720,202776,163388,9131,2.795683925,8720,2.669846
2023-11-30 18:12:01.544,79721,202532,163320,-1405,-0.430175875,8511,2.605855425
2023-11-30 18:12:01.580,79722,202316,163241,13190,4.03844825,8491,2.599731925
2023-11-30 18:12:01.580,79723,202120,163167,13128,4.0194654,8639,2.645045825
2023-11-30 18:12:01.580,79724,201952,163112,-679,-0.207892825,8504,2.6037122
2023-11-30 18:12:01.580,79725,201819,163090,8430,2.58105525,8353,2.557479775
2023-11-30 18:12:01.580,79726,201710,163059,15740,4.8191945,8500,2.6024875
2023-11-30 18:12:01.580,79727,201616,163027,4581,1.402587675,8514,2.60677395
2023-11-30 18:12:01.609,79728,201578,163012,2817,0.862494975,8324,2.5486007
2023-11-30 18:12:01.609,79729,201531,163019,16274,4.98269195,8415,2.576462625
2023-11-30 18:12:01.609,79730,201519,163017,10494,3.21300045,8526,2.61044805
2023-11-30 18:12:01.609,79731,201551,163032,-1003,-0.307093525,8339,2.553193325
2023-11-30 18:12:01.609,79732,201564,163034,13899,4.255526325,8302,2.54186485
2023-11-30 18:12:01.646,79733,201620,163064,14924,4.5693557,8425,2.579524375
2023-11-30 18:12:01.646,79734,201690,163095,227,0.069501725,8277,2.534210475
2023-11-30 18:12:01.646,79735,201730,163129,8593,2.630961775,8100,2.4800175
2023-11-30 18:12:01.646,79736,201799,163142,16551,5.067502425,8202,2.51124735
2023-11-30 18:12:01.646,79737,201870,163184,5103,1.562411025,8162,2.49900035
2023-11-30 18:12:01.646,79738,201930,163189,2503,0.766356025,7917,2.423987475
2023-11-30 18:12:01.646,79739,201986,163230,16535,5.062603625,7960,2.437153
2023-11-30 18:12:01.676,79740,202046,163233,10846,3.32077405,8039,2.461340825
2023-11-30 18:12:01.676,79741,202086,163260,-1217,-0.372614975,7831,2.397656425
2023-11-30 18:12:01.676,79742,202151,163292,13829,4.234094075,7791,2.385409425
2023-11-30 18:12:01.676,79743,202186,163290,15146,4.63732655,7968,2.4396024
2023-11-30 18:12:01.676,79744,202210,163299,145,0.044395375,7918,2.42429365
2023-11-30 18:12:01.676,79745,202236,163289,8120,2.486141,7839,2.400105825
2023-11-30 18:12:01.704,79746,202272,163323,17162,5.25457535,8064,2.4689952
2023-11-30 18:12:01.704,79747,202309,163314,5228,1.6006829,8189,2.507267075
2023-11-30 18:12:01.704,79748,202332,163340,1561,0.477939175,8096,2.4787928
2023-11-30 18:12:01.704,79749,202371,163362,16626,5.09046555,8274,2.53329195
2023-11-30 18:12:01.704,79750,202412,163359,11203,3.430078525,8506,2.60432455
2023-11-30 18:12:01.749,79751,202455,163370,-1597,-0.488961475,8438,2.58350465
2023-11-30 18:12:01.749,79752,202510,163381,13225,4.049164375,8494,2.60065045
2023-11-30 18:12:01.749,79753,202553,163418,15317,4.689682475,8742,2.67658185
2023-11-30 18:12:01.749,79754,202596,163416,301,0.092158675,8733,2.673826275
2023-11-30 18:12:01.749,79755,202685,163449,7250,2.21976875,8649,2.648107575
2023-11-30 18:12:01.749,79756,202769,163489,17185,5.261617375,8844,2.7078117
2023-11-30 18:12:01.779,79757,202861,163525,5819,1.781632325,8910,2.72801925
2023-11-30 18:12:01.779,79758,202961,163556,1166,0.35700005,8719,2.669539825
2023-11-30 18:12:01.779,79759,203052,163594,16262,4.97901785,8798,2.69372765
2023-11-30 18:12:01.779,79760,203165,163613,11563,3.540301525,8941,2.737510675
2023-11-30 18:12:01.779,79761,203234,163640,-1793,-0.548971775,8773,2.686073275
2023-11-30 18:12:01.779,79762,203297,163681,12522,3.83392335,8733,2.673826275
2023-11-30 18:12:01.816,79763,203384,163681,15315,4.689070125,8921,2.731387175
2023-11-30 18:12:01.816,79764,203426,163715,355,0.108692125,8857,2.711791975
2023-11-30 18:12:01.816,79765,203489,163732,6344,1.9423742,8696,2.6624978
2023-11-30 18:12:01.816,79766,203553,163745,16648,5.0972014,8836,2.7053623
2023-11-30 18:12:01.816,79767,203590,163768,5649,1.729582575,8878,2.71822165
2023-11-30 18:12:01.816,79768,203638,163777,363,0.111141525,8668,2.6539249
2023-11-30 18:12:01.816,79769,203684,163800,15863,4.856854025,8730,2.67290775
2023-11-30 18:12:01.842,79770,203727,163805,11738,3.59388215,8869,2.715466075
2023-11-30 18:12:01.842,79771,203762,163823,-2168,-0.6637874,8690,2.66066075
2023-11-30 18:12:01.842,79772,203815,163837,11472,3.5124396,8623,2.640147025
2023-11-30 18:12:01.842,79773,203860,163847,15120,4.629366,8792,2.6918906
2023-11-30 18:12:01.842,79774,203925,163854,554,0.16962095,8720,2.669846
2023-11-30 18:12:01.842,79775,203982,163876,5557,1.701414475,8553,2.618714775
2023-11-30 18:12:01.842,79776,204030,163902,16658,5.10026315,8704,2.6649472
2023-11-30 18:12:01.872,79777,204103,163915,6289,1.925534575,8764,2.6833177
2023-11-30 18:12:01.872,79778,204147,163942,-117,-0.035822475,8552,2.6184086
2023-11-30 18:12:01.872,79779,204175,163966,15375,4.707440625,8600,2.633105
2023-11-30 18:12:01.872,79780,204246,163983,11903,3.644401025,8737,2.675050975
2023-11-30 18:12:01.872,79781,204325,163996,-2307,-0.706345725,8555,2.619327125
2023-11-30 18:12:01.872,79782,204414,164017,11369,3.480903575,8463,2.591159025
2023-11-30 18:12:01.872,79783,204472,164044,16178,4.95329915,8614,2.63739145
2023-11-30 18:12:01.872,79784,204539,164068,863,0.264229025,8521,2.608917175
2023-11-30 18:12:01.872,79785,204609,164094,5082,1.55598135,8309,2.544008075
2023-11-30 18:12:01.903,79786,204700,164099,17234,5.27661995,8418,2.57738115
2023-11-30 18:12:01.903,79787,204758,164141,6876,2.1052593,8459,2.589934325
2023-11-30 18:12:01.903,79788,204841,164167,-505,-0.154618375,8218,2.51614615
2023-11-30 18:12:01.903,79789,204905,164191,15501,4.746018675,8225,2.518289375
2023-11-30 18:12:01.903,79790,205000,164222,12674,3.88046195,8347,2.555642725
2023-11-30 18:12:01.903,79791,205080,164241,-2067,-0.632863725,8165,2.499918875
2023-11-30 18:12:01.903,79792,205166,164273,11273,3.451510775,8067,2.469913725
2023-11-30 18:12:01.934,79793,205272,164313,16936,5.1853798,8230,2.51982025
2023-11-30 18:12:01.934,79794,205370,164357,1205,0.368940875,8176,2.5032868
2023-11-30 18:12:01.934,79795,205473,164371,4442,1.36002935,7996,2.4481753
2023-11-30 18:12:01.934,79796,205596,164399,18579,5.688425325,8136,2.4910398
2023-11-30 18:12:01.934,79797,205677,164448,7584,2.3220312,8215,2.515227625
2023-11-30 18:12:01.934,79798,205836,164504,-956,-0.2927033,8002,2.45001235
2023-11-30 18:12:01.974,79799,205948,164546,16082,4.92390635,8039,2.461340825
2023-11-30 18:12:01.974,79800,206108,164599,13476,4.1260143,8223,2.517677025
2023-11-30 18:12:01.974,79801,206241,164654,-2378,-0.72808415,8099,2.479711325
2023-11-30 18:12:01.974,79802,206367,164695,10675,3.268418125,8033,2.459503775
2023-11-30 18:12:01.974,79803,206500,164727,17708,5.4217469,8250,2.52594375
2023-11-30 18:12:01.974,79804,206622,164779,1373,0.420378275,8261,2.529311675
2023-11-30 18:12:01.974,79805,206734,164816,3606,1.10406705,8112,2.4836916
2023-11-30 18:12:01.974,79806,206843,164847,17600,5.38868,8269,2.531761075
2023-11-30 18:12:02.005,79807,206955,164877,7646,2.34101405,8377,2.564827975
2023-11-30 18:12:02.005,79808,207032,164911,-1809,-0.553870575,8186,2.50634855
2023-11-30 18:12:02.005,79809,207114,164926,14844,4.5448617,8244,2.5241067
2023-11-30 18:12:02.005,79810,207182,164955,13524,4.1407107,8465,2.591771375
2023-11-30 18:12:02.005,79811,207262,164966,-2473,-0.757170775,8363,2.560541525
2023-11-30 18:12:02.005,79812,207339,164987,9693,2.967754275,8298,2.54064015
2023-11-30 18:12:02.035,79813,207382,165005,17402,5.32805735,8538,2.61412215
2023-11-30 18:12:02.035,79814,207452,165028,1646,0.50396405,8561,2.621164175
2023-11-30 18:12:02.035,79815,207519,165054,2943,0.901073025,8393,2.569726775
2023-11-30 18:12:02.035,79816,207597,165084,18058,5.52890815,8553,2.618714775
2023-11-30 18:12:02.035,79817,207660,165103,8364,2.5608477,8697,2.662803975
2023-11-30 18:12:02.066,79818,207718,165121,-1757,-0.537949475,8519,2.608304825
2023-11-30 18:12:02.066,79819,207730,165134,15105,4.624773375,8563,2.621776525
2023-11-30 18:12:02.066,79820,207794,165131,14116,4.3219663,8773,2.686073275
2023-11-30 18:12:02.066,79821,207808,165159,-2140,-0.6552145,8639,2.645045825
2023-11-30 18:12:02.066,79822,207860,165153,9257,2.834261975,8510,2.60554925
2023-11-30 18:12:02.066,79823,207893,165171,17370,5.31825975,8682,2.65821135
2023-11-30 18:12:02.066,79824,207924,165180,2121,0.649397175,8633,2.643208775
2023-11-30 18:12:02.066,79825,207964,165199,2583,0.790850025,8377,2.564827975
2023-11-30 18:12:02.096,79826,207987,165208,18129,5.550646575,8448,2.5865664
2023-11-30 18:12:02.096,79827,208041,165216,8783,2.689135025,8504,2.6037122
2023-11-30 18:12:02.096,79828,208067,165213,-2492,-0.7629881,8234,2.52104495
2023-11-30 18:12:02.096,79829,208123,165231,14334,4.38871245,8197,2.509716475
2023-11-30 18:12:02.096,79830,208164,165246,14046,4.30053405,8363,2.560541525
2023-11-30 18:12:02.096,79831,208200,165273,-3227,-0.988026725,8205,2.512165875
2023-11-30 18:12:02.127,79832,208243,165278,7471,2.287433425,8060,2.4677705
2023-11-30 18:12:02.127,79833,208296,165293,17298,5.29621515,8257,2.528086975
2023-11-30 18:12:02.127,79834,208341,165295,1997,0.611431475,8272,2.5326796
2023-11-30 18:12:02.127,79835,208382,165324,1929,0.590611575,8074,2.47205695
2023-11-30 18:12:02.127,79836,208402,165329,18861,5.774766675,8216,2.5155338
2023-11-30 18:12:02.127,79837,208437,165333,10074,3.08440695,8379,2.565440325
2023-11-30 18:12:02.127,79838,208463,165356,-2036,-0.6233723,8210,2.51369675
2023-11-30 18:12:02.127,79839,208479,165350,14899,4.561701325,8240,2.522882
2023-11-30 18:12:02.157,79840,208495,165343,15630,4.78551525,8463,2.591159025
2023-11-30 18:12:02.157,79841,208514,165356,-2008,-0.6147994,8347,2.555642725
2023-11-30 18:12:02.157,79842,208526,165359,8016,2.4542988,8212,2.5143091
2023-11-30 18:12:02.157,79843,208530,165340,18672,5.7168996,8416,2.5767688
2023-11-30 18:12:02.157,79844,208531,165339,2986,0.91423855,8433,2.581973775
2023-11-30 18:12:02.157,79845,208544,165353,1182,0.36189885,8207,2.512778225
2023-11-30 18:12:02.157,79846,208557,165344,18468,5.6544399,8302,2.54186485
2023-11-30 18:12:02.188,79847,208586,165357,10057,3.079201975,8407,2.574013225
2023-11-30 18:12:02.188,79848,208578,165358,-2650,-0.81136375,8138,2.49165215
2023-11-30 18:12:02.188,79849,208602,165376,14372,4.4003471,8032,2.4591976
2023-11-30 18:12:02.188,79850,208649,165387,15920,4.874306,8149,2.495020075
2023-11-30 18:12:02.188,79851,208685,165386,-1843,-0.564280525,7967,2.439296225
2023-11-30 18:12:02.219,79852,208720,165415,7360,2.253448,7784,2.3832662
2023-11-30 18:12:02.219,79853,208779,165430,18984,5.8124262,7991,2.446644425
2023-11-30 18:12:02.219,79854,208818,165434,3413,1.044975275,8061,2.468076675
2023-11-30 18:12:02.219,79855,208861,165460,619,0.189522325,7899,2.418476325
2023-11-30 18:12:02.219,79856,208899,165467,17722,5.42603335,8078,2.47328165
2023-11-30 18:12:02.219,79857,208945,165483,10033,3.071853775,8309,2.544008075
2023-11-30 18:12:02.219,79858,208957,165482,-3206,-0.98159705,8178,2.50389915
2023-11-30 18:12:02.249,79859,208990,165496,13020,3.9863985,8227,2.518901725
2023-11-30 18:12:02.249,79860,209015,165498,15399,4.714788825,8535,2.613203625
2023-11-30 18:12:02.249,79861,209037,165486,-1938,-0.59336715,8527,2.610754225
2023-11-30 18:12:02.249,79862,209071,165514,6241,1.910838175,8451,2.587484925
2023-11-30 18:12:02.249,79863,209112,165522,17764,5.4388927,8709,2.666478075
2023-11-30 18:12:02.249,79864,209133,165521,3420,1.0471185,8772,2.6857671
2023-11-30 18:12:02.279,79865,209179,165533,-295,-0.090321625,8527,2.610754225
2023-11-30 18:12:02.279,79866,209233,165562,16551,5.067502425,8589,2.629737075
2023-11-30 18:12:02.279,79867,209283,165570,10026,3.06971055,8708,2.6661719
2023-11-30 18:12:02.279,79868,209304,165582,-3534,-1.08202245,8461,2.590546675
2023-11-30 18:12:02.279,79869,209353,165593,12307,3.768095725,8392,2.5694206
2023-11-30 18:12:02.319,79870,209385,165613,15308,4.6869269,8612,2.6367791
2023-11-30 18:12:02.319,79871,209394,165607,-2137,-0.654295975,8528,2.6110604
2023-11-30 18:12:02.319,79872,209360,165592,5342,1.63558685,8363,2.560541525
2023-11-30 18:12:02.319,79873,209253,165548,17930,5.48971775,8547,2.616877725
2023-11-30 18:12:02.319,79874,209064,165452,3683,1.127642525,8567,2.623001225
2023-11-30 18:12:02.319,79875,208745,165332,-1070,-0.32760725,8290,2.53819075
2023-11-30 18:12:02.350,79876,208326,165165,16138,4.94105215,8323,2.548294525
2023-11-30 18:12:02.350,79877,207750,164932,10234,3.13339495,8428,2.5804429
2023-11-30 18:12:02.350,79878,207064,164687,-3987,-1.220719725,8164,2.4996127
2023-11-30 18:12:02.350,79879,206345,164438,11234,3.43956995,8046,2.46348405
2023-11-30 18:12:02.350,79880,205703,164252,15192,4.6514106,8198,2.51002265
2023-11-30 18:12:02.350,79881,205228,164077,-2012,-0.6160241,8042,2.46225935
2023-11-30 18:12:02.380,79882,204789,163928,4341,1.329105675,7794,2.38632795
2023-11-30 18:12:02.380,79883,204417,163813,16951,5.189972425,7911,2.422150425
2023-11-30 18:12:02.380,79884,204017,163689,4039,1.236640825,7907,2.420925725
2023-11-30 18:12:02.380,79885,203688,163584,-1420,-0.4347685,7621,2.333359675
2023-11-30 18:12:02.380,79886,203417,163489,15482,4.74020135,7652,2.3428511
2023-11-30 18:12:02.410,79887,203157,163404,10683,3.270867525,7787,2.384184725
2023-11-30 18:12:02.410,79888,202945,163333,-3678,-1.12611165,7560,2.314683
2023-11-30 18:12:02.410,79889,202768,163280,11506,3.52284955,7464,2.2852902
2023-11-30 18:12:02.410,79890,202605,163228,16423,5.028312025,7663,2.346219025
2023-11-30 18:12:02.410,79891,202473,163196,-388,-0.1187959,7576,2.3195818
2023-11-30 18:12:02.410,79892,202362,163174,5503,1.684881025,7369,2.256203575
2023-11-30 18:12:02.451,79893,202292,163139,18840,5.768337,7516,2.3012113
2023-11-30 18:12:02.451,79894,202243,163133,6061,1.855726675,7562,2.31529535
2023-11-30 18:12:02.451,79895,202183,163142,-244,-0.0747067,7310,2.23813925
2023-11-30 18:12:02.451,79896,202157,163128,17196,5.2649853,7344,2.2485492
2023-11-30 18:12:02.451,79897,202166,163137,12698,3.88781015,7484,2.2914137
2023-11-30 18:12:02.451,79898,202182,163132,-2274,-0.69624195,7261,2.223136675
2023-11-30 18:12:02.481,79899,202219,163144,12250,3.75064375,7143,2.187008025
2023-11-30 18:12:02.481,79900,202257,163171,17661,5.407356675,7316,2.2399763
2023-11-30 18:12:02.481,79901,202295,163182,416,0.1273688,7214,2.20874645
2023-11-30 18:12:02.481,79902,202325,163204,5315,1.627320125,6992,2.1407756
2023-11-30 18:12:02.481,79903,202320,163205,19233,5.888663775,7135,2.184558625
2023-11-30 18:12:02.481,79904,202364,163214,6550,2.00544625,7197,2.203541475
2023-11-30 18:12:02.481,79905,202399,163225,-656,-0.2008508,6968,2.1334274
2023-11-30 18:12:02.521,79906,202399,163248,17257,5.283661975,7047,2.157615225
2023-11-30 18:12:02.521,79907,202478,163250,13440,4.114992,7287,2.231097225
2023-11-30 18:12:02.521,79908,202524,163283,-2428,-0.7433929,7202,2.20507235
2023-11-30 18:12:02.521,79909,202589,163299,11649,3.566632575,7234,2.21486995
2023-11-30 18:12:02.521,79910,202644,163319,17746,5.43338155,7596,2.3257053
2023-11-30 18:12:02.521,79911,202656,163348,655,0.200544625,7711,2.360915425
2023-11-30 18:12:02.521,79912,202699,163336,4607,1.410548225,7681,2.351730175
2023-11-30 18:12:02.552,79913,202708,163346,19276,5.9018293,8006,2.45123705
2023-11-30 18:12:02.552,79914,202732,163341,6998,2.14261265,8261,2.529311675
2023-11-30 18:12:02.552,79915,202740,163364,-1190,-0.36434825,8195,2.509104125
2023-11-30 18:12:02.552,79916,202750,163370,16740,5.1253695,8390,2.56880825
2023-11-30 18:12:02.552,79917,202803,163385,13612,4.1676541,8712,2.6673966
2023-11-30 18:12:02.552,79918,202857,163395,-2773,-0.849023275,8655,2.649944625
2023-11-30 18:12:02.552,79919,202922,163414,10488,3.2111634,8646,2.64718905
2023-11-30 18:12:02.552,79920,202984,163435,17298,5.29621515,8926,2.73291805
2023-11-30 18:12:02.552,79921,203056,163462,646,0.19778905,8925,2.732611875
2023-11-30 18:12:02.584,79922,203130,163487,3528,1.0801854,8739,2.675663325
2023-11-30 18:12:02.584,79923,203190,163512,18164,5.5613627,8903,2.725876025
2023-11-30 18:12:02.584,79924,203247,163508,7004,2.1444497,9014,2.75986145
2023-11-30 18:12:02.584,79925,203296,163536,-1912,-0.5854066,8796,2.6931153
2023-11-30 18:12:02.584,79926,203372,163560,15211,4.657227925,8837,2.705668475
2023-11-30 18:12:02.584,79927,203420,163595,13244,4.0549817,9036,2.7665973
2023-11-30 18:12:02.584,79928,203494,163623,-2861,-0.875966675,8872,2.7163846
2023-11-30 18:12:02.614,79929,203529,163627,9676,2.9625493,8756,2.6808683
2023-11-30 18:12:02.614,79930,203586,163638,17257,5.283661975,8960,2.743328
2023-11-30 18:12:02.614,79931,203593,163642,1064,0.3257702,8916,2.7298563
2023-11-30 18:12:02.614,79932,203574,163627,2841,0.869843175,8694,2.66188545
2023-11-30 18:12:02.614,79933,203568,163625,17931,5.490023925,8838,2.70597465
2023-11-30 18:12:02.614,79934,203602,163646,7534,2.30672245,8942,2.73781685
2023-11-30 18:12:02.645,79935,203625,163643,-2301,-0.704508675,8693,2.661579275
2023-11-30 18:12:02.645,79936,203651,163645,14894,4.56017045,8675,2.656068125
2023-11-30 18:12:02.645,79937,203700,163645,13919,4.261649825,8822,2.70107585
2023-11-30 18:12:02.645,79938,203725,163664,-2811,-0.860657925,8614,2.63739145
2023-11-30 18:12:02.645,79939,203737,163684,8898,2.72434515,8441,2.584423175
2023-11-30 18:12:02.676,79940,203764,163678,17135,5.246308625,8595,2.631574125
2023-11-30 18:12:02.676,79941,203787,163697,1442,0.44150435,8516,2.6073863
2023-11-30 18:12:02.676,79942,203821,163703,2116,0.6478663,8244,2.5241067
2023-11-30 18:12:02.676,79943,203853,163708,17439,5.339385825,8322,2.54798835
2023-11-30 18:12:02.676,79944,203892,163722,7944,2.4322542,8371,2.562990925
2023-11-30 18:12:02.676,79945,203925,163730,-2504,-0.7666622,8079,2.473587825
2023-11-30 18:12:02.707,79946,203954,163740,14323,4.385344525,8031,2.458891425
2023-11-30 18:12:02.707,79947,203995,163745,13713,4.198577775,8192,2.5081856
2023-11-30 18:12:02.707,79948,204057,163772,-2755,-0.843512125,8028,2.4579729
2023-11-30 18:12:02.707,79949,204115,163792,8255,2.527474625,7891,2.416026925
2023-11-30 18:12:02.707,79950,204198,163811,16985,5.200382375,8092,2.4775681
2023-11-30 18:12:02.707,79951,204299,163848,1625,0.497534375,8085,2.475424875
2023-11-30 18:12:02.738,79952,204400,163897,1423,0.435687025,7864,2.4077602
2023-11-30 18:12:02.738,79953,204506,163932,17058,5.22273315,7987,2.445419725
2023-11-30 18:12:02.738,79954,204618,163982,8092,2.4775681,8115,2.484610125
2023-11-30 18:12:02.738,79955,204753,164024,-3037,-0.929853475,7901,2.419088675
2023-11-30 18:12:02.738,79956,204852,164071,13752,4.2105186,7896,2.4175578
2023-11-30 18:12:02.738,79957,204979,164112,14110,4.32012925,8095,2.478486625
2023-11-30 18:12:02.738,79958,205063,164132,-2683,-0.821467525,7962,2.43776535
2023-11-30 18:12:02.738,79959,205153,164152,7613,2.330910275,7817,2.393369975
2023-11-30 18:12:02.768,79960,205216,164186,17260,5.2845805,7998,2.44878765
2023-11-30 18:12:02.768,79961,205303,164220,1940,0.5939795,7980,2.4432765
2023-11-30 18:12:02.768,79962,205379,164239,882,0.27004635,7741,2.370100675
2023-11-30 18:12:02.768,79963,205489,164259,17388,5.3237709,7845,2.401942875
2023-11-30 18:12:02.768,79964,205560,164307,8562,2.62147035,7967,2.439296225
2023-11-30 18:12:02.768,79965,205675,164330,-3374,-1.03303445,7738,2.36918215
2023-11-30 18:12:02.799,79966,205762,164363,13271,4.063248425,7705,2.359078375
2023-11-30 18:12:02.799,79967,205848,164384,14116,4.3219663,7888,2.4151084
2023-11-30 18:12:02.799,79968,205951,164430,-2743,-0.839838025,7745,2.371325375
2023-11-30 18:12:02.799,79969,206053,164449,6932,2.1224051,7575,2.319275625
2023-11-30 18:12:02.799,79970,206159,164499,17322,5.30356335,7747,2.371937725
2023-11-30 18:12:02.830,79971,206244,164529,2134,0.65337745,7746,2.37163155
2023-11-30 18:12:02.830,79972,206304,164555,309,0.094608075,7507,2.298455725
2023-11-30 18:12:02.830,79973,206383,164576,16909,5.177113075,7597,2.326011475
2023-11-30 18:12:02.830,79974,206435,164601,8847,2.708730225,7722,2.36428335
2023-11-30 18:12:02.830,79975,206478,164591,-3561,-1.090289175,7500,2.2963125
2023-11-30 18:12:02.830,79976,206517,164610,12522,3.83392335,7463,2.284984025
2023-11-30 18:12:02.830,79977,206519,164612,14117,4.322272475,7666,2.34713755
2023-11-30 18:12:02.860,79978,206569,164621,-2573,-0.787788275,7558,2.31407065
2023-11-30 18:12:02.860,79979,206570,164603,6031,1.846541425,7411,2.269062925
2023-11-30 18:12:02.860,79980,206613,164621,16332,5.0004501,7615,2.331522625
2023-11-30 18:12:02.860,79981,206644,164622,2376,0.7274718,7653,2.343157275
2023-11-30 18:12:02.860,79982,206660,164622,-272,-0.0832796,7432,2.2754926
2023-11-30 18:12:02.860,79983,206672,164630,15918,4.87369365,7529,2.305191575
2023-11-30 18:12:02.890,79984,206696,164635,9027,2.763841725,7674,2.34958695
2023-11-30 18:12:02.890,79985,206691,164633,-3765,-1.152748875,7459,2.283759325
2023-11-30 18:12:02.890,79986,206711,164619,11977,3.667057975,7410,2.26875675
2023-11-30 18:12:02.890,79987,206708,164638,14345,4.392080375,7605,2.328460875
2023-11-30 18:12:02.921,79988,206704,164632,-2207,-0.675728225,7485,2.291719875
2023-11-30 18:12:02.921,79989,206714,164638,5610,1.71764175,7307,2.237220725
2023-11-30 18:12:02.921,79990,206723,164628,16698,5.11251015,7484,2.2914137
2023-11-30 18:12:02.956,79991,206734,164638,2955,0.904747125,7509,2.299068075
2023-11-30 18:12:02.956,79992,206733,164638,-714,-0.21860895,7266,2.22466755
2023-11-30 18:12:02.956,79993,206738,164648,15587,4.772349725,7338,2.24671215
2023-11-30 18:12:02.956,79994,206752,164627,9373,2.869778275,7471,2.287433425
2023-11-30 18:12:02.956,79995,206749,164633,-3871,-1.185203425,7248,2.2191564
2023-11-30 18:12:02.956,79996,206756,164631,11262,3.44814285,7176,2.1971118
2023-11-30 18:12:02.988,79997,206779,164619,14085,4.312474875,7346,2.24916155
2023-11-30 18:12:02.988,79998,206813,164635,-2482,-0.75992635,7214,2.20874645
2023-11-30 18:12:02.988,79999,206846,164651,4228,1.2945079,7014,2.14751145
2023-11-30 18:12:02.988,80000,206907,164681,15598,4.77571765,7162,2.19282535
2023-11-30 18:12:02.988,80001,206981,164706,2319,0.710019825,7169,2.194968575
2023-11-30 18:12:02.988,80002,207086,164737,-2378,-0.72808415,6905,2.114138375
2023-11-30 18:12:02.988,80003,207165,164779,14966,4.58221505,6959,2.130671825
2023-11-30 18:12:02.988,80004,207279,164813,9853,3.016742275,7108,2.1762919
2023-11-30 18:12:02.988,80005,207362,164855,-3433,-1.051098775,6918,2.11811865
2023-11-30 18:12:03.015,80006,207462,164881,11703,3.583166025,6867,2.102503725
2023-11-30 18:12:03.015,80007,207535,164904,15478,4.73897665,7081,2.168025175
2023-11-30 18:12:03.015,80008,207596,164933,-1212,-0.3710841,7017,2.148429975
2023-11-30 18:12:03.015,80009,207688,164959,4640,1.420652,6861,2.100666675
2023-11-30 18:12:03.015,80010,207771,164982,16654,5.09903845,7042,2.15608435
2023-11-30 18:12:03.015,80011,207863,165007,3883,1.188877525,7102,2.17445485
2023-11-30 18:12:03.015,80012,207933,165047,-1603,-0.490798525,6878,2.10587165
2023-11-30 18:12:03.048,80013,208043,165041,14799,4.531083825,6939,2.124548325
2023-11-30 18:12:03.048,80014,208140,165089,10093,3.090224275,7083,2.168637525
2023-11-30 18:12:03.048,80015,208236,165114,-3873,-1.185815775,6864,2.1015852
2023-11-30 18:12:03.048,80016,208338,165149,10193,3.120841775,6744,2.0648442
2023-11-30 18:12:03.048,80017,208438,165175,14741,4.513325675,6876,2.1052593
2023-11-30 18:12:03.048,80018,208559,165210,-1527,-0.467529225,6716,2.0562713
2023-11-30 18:12:03.079,80019,208648,165251,3594,1.10039295,6436,1.9705423
2023-11-30 18:12:03.079,80020,208752,165295,16496,5.0506628,6515,1.994730125
2023-11-30 18:12:03.079,80021,208866,165323,4284,1.3116537,6528,1.9987104
2023-11-30 18:12:03.079,80022,208937,165346,-2132,-0.6527651,6294,1.92706545
2023-11-30 18:12:03.079,80023,209032,165372,14424,4.4162682,6385,1.954927375
2023-11-30 18:12:03.079,80024,209086,165412,10383,3.179015025,6625,2.028409375
2023-11-30 18:12:03.079,80025,209161,165412,-4132,-1.2651151,6541,2.002690675
2023-11-30 18:12:03.108,80026,209225,165430,9237,2.828138475,6560,2.008508
2023-11-30 18:12:03.108,80027,209253,165459,14450,4.42422875,6853,2.098217275
2023-11-30 18:12:03.108,80028,209286,165472,-1144,-0.3502642,6879,2.106177825
2023-11-30 18:12:03.108,80029,209311,165472,2985,0.913932375,6775,2.074335625
2023-11-30 18:12:03.108,80030,209369,165469,15721,4.813377175,7009,2.145980575
2023-11-30 18:12:03.108,80031,209390,165487,4634,1.41881495,7145,2.187620375
2023-11-30 18:12:03.108,80032,209436,165479,-2456,-0.7519658,6963,2.131896525
2023-11-30 18:12:03.143,80033,209451,165484,13709,4.197353075,7019,2.149042325
2023-11-30 18:12:03.143,80034,209476,165496,10647,3.259845225,7162,2.19282535
2023-11-30 18:12:03.143,80035,209502,165496,-3917,-1.199287475,6929,2.121486575
2023-11-30 18:12:03.143,80036,209528,165495,8795,2.692809125,6759,2.069436825
2023-11-30 18:12:03.143,80037,209548,165511,14612,4.4738291,6884,2.1077087
2023-11-30 18:12:03.173,80038,209553,165510,-871,-0.266678425,6780,2.0758665
2023-11-30 18:12:03.173,80039,209521,165503,2364,0.7237977,6557,2.007589475
2023-11-30 18:12:03.173,80040,209457,165459,15726,4.81490805,6697,2.050453975
2023-11-30 18:12:03.173,80041,209311,165409,5116,1.5663913,6785,2.077397375
2023-11-30 18:12:03.173,80042,209030,165289,-2990,-0.91546325,6567,2.010651225
2023-11-30 18:12:03.173,80043,208619,165110,13345,4.085905375,6584,2.0158562
2023-11-30 18:12:03.173,80044,208059,164871,10856,3.3238358,6727,2.059639225
2023-11-30 18:12:03.204,80045,207324,164594,-4116,-1.2602163,6536,2.0011598
2023-11-30 18:12:03.204,80046,206543,164304,8130,2.48920275,6418,1.96503115
2023-11-30 18:12:03.204,80047,205785,164044,14558,4.45729565,6597,2.019836475
2023-11-30 18:12:03.204,80048,205147,163823,-961,-0.294234175,6543,2.003303025
2023-11-30 18:12:03.204,80049,204645,163682,1608,0.4923294,6332,1.9387001
2023-11-30 18:12:03.204,80050,204240,163533,15669,4.797456075,6454,1.97605345
2023-11-30 18:12:03.235,80051,203802,163384,5209,1.594865575,6527,1.998404225
2023-11-30 18:12:03.235,80052,203393,163250,-3399,-1.040688825,6295,1.927371625
2023-11-30 18:12:03.235,80053,203054,163148,13367,4.092641225,6311,1.932270425
2023-11-30 18:12:03.235,80054,202783,163056,11461,3.509071675,6493,1.987994275
2023-11-30 18:12:03.235,80055,202537,162993,-4035,-1.235416125,6355,1.945742125
2023-11-30 18:12:03.235,80056,202342,162917,7752,2.3734686,6259,1.916349325
2023-11-30 18:12:03.235,80057,202147,162861,14979,4.586195325,6458,1.97727815
2023-11-30 18:12:03.235,80058,201975,162822,-206,-0.06307205,6435,1.970236125
2023-11-30 18:12:03.235,80059,201860,162773,1327,0.406294225,6231,1.907776425
2023-11-30 18:12:03.266,80060,201760,162736,16074,4.92145695,6350,1.94421125
2023-11-30 18:12:03.266,80061,201704,162730,6403,1.960438525,6442,1.97237935
2023-11-30 18:12:03.266,80062,201655,162723,-3005,-0.920055875,6222,1.90502085
2023-11-30 18:12:03.266,80063,201608,162709,13727,4.202864225,6225,1.905939375
2023-11-30 18:12:03.266,80064,201622,162703,12369,3.787078575,6392,1.9570706
2023-11-30 18:12:03.266,80065,201617,162711,-3274,-1.00241695,6230,1.90747025
2023-11-30 18:12:03.266,80066,201641,162726,8280,2.535129,6092,1.8652181
2023-11-30 18:12:03.266,80067,201700,162750,16378,5.01453415,6264,1.9178802
2023-11-30 18:12:03.266,80068,201746,162780,960,0.293928,6231,1.907776425
2023-11-30 18:12:03.296,80069,201818,162789,1637,0.501208475,6012,1.8407241
2023-11-30 18:12:03.296,80070,201849,162827,16479,5.045457825,6137,1.878995975
2023-11-30 18:12:03.296,80071,201907,162842,7196,2.2032353,6261,1.916961675
2023-11-30 18:12:03.296,80072,201945,162837,-3114,-0.95342895,6066,1.85725755
2023-11-30 18:12:03.296,80073,201984,162858,13366,4.09233505,6082,1.86215635
2023-11-30 18:12:03.327,80074,202000,162869,12889,3.946289575,6284,1.9240037
2023-11-30 18:12:03.327,80075,202011,162871,-3138,-0.96077715,6175,1.890630625
2023-11-30 18:12:03.327,80076,202044,162884,7558,2.31407065,6085,1.863074875
2023-11-30 18:12:03.358,80077,202060,162889,16296,4.9894278,6318,1.93441365
2023-11-30 18:12:03.358,80078,202071,162885,1362,0.41701035,6361,1.947579175
2023-11-30 18:12:03.358,80079,202077,162885,1043,0.319340525,6211,1.901652925
2023-11-30 18:12:03.358,80080,202058,162892,16469,5.042396075,6400,1.95952
2023-11-30 18:12:03.358,80081,202088,162888,7559,2.314376825,6592,2.0183056
2023-11-30 18:12:03.358,80082,202113,162894,-3431,-1.050486425,6453,1.975747275
2023-11-30 18:12:03.389,80083,202127,162913,13095,4.009361625,6526,1.99809805
2023-11-30 18:12:03.389,80084,202133,162902,13361,4.090804175,6807,2.084133225
2023-11-30 18:12:03.389,80085,202137,162907,-2906,-0.88974455,6772,2.0734171
2023-11-30 18:12:03.389,80086,202189,162929,6841,2.094543175,6725,2.059026875
2023-11-30 18:12:03.389,80087,202212,162941,15822,4.84430085,6996,2.1420003
2023-11-30 18:12:03.389,80088,202262,162956,1568,0.4800824,7074,2.16588195
2023-11-30 18:12:03.420,80089,202332,162982,319,0.097669825,6917,2.117812475
2023-11-30 18:12:03.420,80090,202404,163012,15490,4.74265075,7064,2.1628202
2023-11-30 18:12:03.420,80091,202481,163028,7846,2.40224905,7210,2.20752175
2023-11-30 18:12:03.420,80092,202553,163070,-3640,-1.114477,7009,2.145980575
2023-11-30 18:12:03.420,80093,202641,163089,11826,3.62082555,6993,2.141081775
2023-11-30 18:12:03.420,80094,202713,163110,12997,3.979356475,7188,2.2007859
2023-11-30 18:12:03.420,80095,202781,163128,-2770,-0.84810475,7070,2.16465725
2023-11-30 18:12:03.450,80096,202870,163147,6005,1.838580875,6927,2.120874225
2023-11-30 18:12:03.450,80097,202909,163158,15450,4.73040375,7115,2.178435125
2023-11-30 18:12:03.450,80098,202925,163163,1960,0.600103,7126,2.18180305
2023-11-30 18:12:03.450,80099,202940,163167,-118,-0.03612865,6899,2.112301325
2023-11-30 18:12:03.450,80100,202974,163165,15011,4.595992925,6997,2.142306475
2023-11-30 18:12:03.450,80101,202955,163179,7997,2.448481475,7140,2.1860895
2023-11-30 18:12:03.481,80102,202952,163172,-3913,-1.198062775,6948,2.1273039
2023-11-30 18:12:03.481,80103,202963,163176,11410,3.49345675,6927,2.120874225
2023-11-30 18:12:03.481,80104,202949,163186,13245,4.055287875,7118,2.17935365
2023-11-30 18:12:03.481,80105,202965,163173,-2772,-0.8487171,6995,2.141694125
2023-11-30 18:12:03.481,80106,202958,163183,5241,1.604663175,6819,2.087807325
2023-11-30 18:12:03.532,80107,202963,163177,15401,4.715401175,6964,2.1322027
2023-11-30 18:12:03.532,80108,202982,163180,2249,0.688587575,6948,2.1273039
2023-11-30 18:12:03.532,80109,202995,163178,-806,-0.24677705,6693,2.049229275
2023-11-30 18:12:03.532,80110,203040,163196,14825,4.539044375,6750,2.06668125
2023-11-30 18:12:03.532,80111,203077,163206,8531,2.611978925,6855,2.098829625
2023-11-30 18:12:03.532,80112,203087,163223,-4035,-1.235416125,6624,2.0281032
2023-11-30 18:12:03.532,80113,203127,163223,10773,3.298423275,6553,2.006364775
2023-11-30 18:12:03.563,80114,203142,163220,13374,4.09478445,6714,2.05565895
2023-11-30 18:12:03.563,80115,203176,163227,-2541,-0.777990675,6591,2.017999425
2023-11-30 18:12:03.563,80116,203212,163245,4724,1.4463707,6416,1.9644188
2023-11-30 18:12:03.563,80117,203247,163261,15523,4.752754525,6573,2.012488275
2023-11-30 18:12:03.563,80118,203334,163302,2884,0.8830087,6596,2.0195303
2023-11-30 18:12:03.563,80119,203404,163327,-1307,-0.400170725,6368,1.9497224
2023-11-30 18:12:03.593,80120,203494,163360,14603,4.471073525,6441,1.972073175
2023-11-30 18:12:03.593,80121,203620,163406,9064,2.7751702,6583,2.015550025
2023-11-30 18:12:03.593,80122,203748,163441,-3973,-1.216433275,6388,1.9558459
2023-11-30 18:12:03.593,80123,203869,163507,10392,3.1817706,6323,1.935944525
2023-11-30 18:12:03.593,80124,204003,163540,13621,4.170409675,6502,1.99074985
2023-11-30 18:12:03.593,80125,204174,163611,-2013,-0.616330275,6413,1.963500275
2023-11-30 18:12:03.593,80126,204354,163666,4048,1.2393964,6246,1.91236905
2023-11-30 18:12:03.624,80127,204538,163730,15274,4.67651695,6404,1.9607447
2023-11-30 18:12:03.624,80128,204713,163798,3302,1.01098985,6442,1.97237935
2023-11-30 18:12:03.624,80129,204904,163848,-1594,-0.48804295,6220,1.9044085
2023-11-30 18:12:03.624,80130,205065,163899,14070,4.30788225,6287,1.924922225
2023-11-30 18:12:03.624,80131,205231,163968,9281,2.841610175,6439,1.971460825
2023-11-30 18:12:03.624,80132,205402,164025,-4112,-1.2589916,6260,1.9166555
2023-11-30 18:12:03.624,80133,205562,164083,9790,2.99745325,6202,1.89889735
2023-11-30 18:12:03.655,80134,205714,164141,13639,4.175920825,6400,1.95952
2023-11-30 18:12:03.655,80135,205857,164181,-1945,-0.595510375,6332,1.9387001
2023-11-30 18:12:03.655,80136,206017,164226,3376,1.0336468,6167,1.888181225
2023-11-30 18:12:03.655,80137,206147,164261,15011,4.595992925,6334,1.93931245
2023-11-30 18:12:03.655,80138,206223,164276,3402,1.04160735,6404,1.9607447
2023-11-30 18:12:03.655,80139,206302,164318,-2301,-0.704508675,6203,1.899203525
2023-11-30 18:12:03.655,80140,206384,164321,13529,4.142241575,6276,1.9215543
2023-11-30 18:12:03.655,80141,206425,164339,9337,2.858755975,6444,1.9729917
2023-11-30 18:12:03.655,80142,206488,164358,-4267,-1.306448725,6279,1.922472825
2023-11-30 18:12:03.686,80143,206552,164378,9028,2.7641479,6213,1.902265275
2023-11-30 18:12:03.686,80144,206599,164386,13528,4.1419354,6407,1.961663225
2023-11-30 18:12:03.686,80145,206632,164386,-1844,-0.5645867,6347,1.943292725
2023-11-30 18:12:03.686,80146,206653,164389,2601,0.796361175,6173,1.890018275
2023-11-30 18:12:03.686,80147,206686,164408,14887,4.558027225,6323,1.935944525
2023-11-30 18:12:03.686,80148,206725,164409,4038,1.23633465,6380,1.9533965
2023-11-30 18:12:03.686,80149,206755,164410,-2491,-0.762681925,6152,1.8835886
2023-11-30 18:12:03.686,80150,206802,164416,13381,4.096927675,6188,1.8946109
2023-11-30 18:12:03.686,80151,206850,164435,10010,3.06481175,6341,1.941455675
2023-11-30 18:12:03.717,80152,206893,164450,-4157,-1.272769475,6165,1.887568875
2023-11-30 18:12:03.717,80153,206936,164447,8657,2.650556975,6069,1.858176075
2023-11-30 18:12:03.717,80154,206934,164464,14109,4.319823075,6241,1.910838175
2023-11-30 18:12:03.717,80155,206967,164458,-1193,-0.365266775,6168,1.8884874
2023-11-30 18:12:03.717,80156,206971,164468,2364,0.7237977,5963,1.825721525
2023-11-30 18:12:03.747,80157,206968,164465,15165,4.643143875,6082,1.86215635
2023-11-30 18:12:03.747,80158,206950,164455,4758,1.45678065,6132,1.8774651
2023-11-30 18:12:03.747,80159,206936,164462,-2827,-0.865556725,5899,1.806126325
2023-11-30 18:12:03.747,80160,206916,164442,13080,4.004769,5918,1.81194365
2023-11-30 18:12:03.747,80161,206901,164428,10362,3.17258535,6062,1.85603285
2023-11-30 18:12:03.747,80162,206870,164422,-4246,-1.30001905,5882,1.80092135
2023-11-30 18:12:03.747,80163,206843,164409,7866,2.40837255,5771,1.766935925
2023-11-30 18:12:03.747,80164,206835,164414,13593,4.161836775,5943,1.819598025
2023-11-30 18:12:03.778,80165,206841,164412,-1710,-0.52355925,5896,1.8052078
2023-11-30 18:12:03.778,80166,206810,164408,754,0.23085595,5715,1.749790125
2023-11-30 18:12:03.778,80167,206864,164426,13718,4.20010865,5864,1.7954102
2023-11-30 18:12:03.778,80168,206892,164437,4134,1.26572745,5969,1.827558575
2023-11-30 18:12:03.778,80169,206922,164449,-3203,-0.980678525,5784,1.7709162
2023-11-30 18:12:03.778,80170,206965,164455,13100,4.0108925,5839,1.787755825
2023-11-30 18:12:03.809,80171,207018,164493,11341,3.472330675,6036,1.8480723
2023-11-30 18:12:03.809,80172,207067,164505,-3369,-1.031503575,5913,1.810412775
2023-11-30 18:12:03.809,80173,207112,164508,8126,2.48797805,5839,1.787755825
2023-11-30 18:12:03.809,80174,207162,164531,14457,4.426371975,6055,1.853889625
2023-11-30 18:12:03.809,80175,207221,164544,-236,-0.0722573,6060,1.8554205
2023-11-30 18:12:03.840,80176,207236,164550,1416,0.4335438,5900,1.8064325
2023-11-30 18:12:03.840,80177,207282,164569,14806,4.53322705,6053,1.853277275
2023-11-30 18:12:03.840,80178,207311,164573,5496,1.6827378,6160,1.886038
2023-11-30 18:12:03.840,80179,207334,164567,-3337,-1.021705975,5952,1.8223536
2023-11-30 18:12:03.840,80180,207381,164581,12281,3.760135175,5955,1.823272125
2023-11-30 18:12:03.840,80181,207427,164611,10977,3.360882975,6098,1.86705515
2023-11-30 18:12:03.840,80182,207470,164612,-3603,-1.103148525,5904,1.8076572
2023-11-30 18:12:03.871,80183,207539,164648,7278,2.22834165,5723,1.752239525
2023-11-30 18:12:03.871,80184,207604,164653,14422,4.41565585,5818,1.78132615
2023-11-30 18:12:03.871,80185,207685,164679,-24,-0.0073482,5706,1.74703455
2023-11-30 18:12:03.871,80186,207770,164714,850,0.26024875,5436,1.6643673
2023-11-30 18:12:03.871,80187,207843,164743,14583,4.464950025,5521,1.690392175
2023-11-30 18:12:03.871,80188,207950,164773,6123,1.874709525,5628,1.7231529
2023-11-30 18:12:03.922,80189,208008,164802,-3284,-1.0054787,5463,1.672634025
2023-11-30 18:12:03.922,80190,208098,164830,11893,3.641339275,5537,1.695290975
2023-11-30 18:12:03.922,80191,208160,164867,11216,3.4340588,5794,1.77397795
2023-11-30 18:12:03.922,80192,208221,164868,-3776,-1.1561168,5745,1.758975375
2023-11-30 18:12:03.922,80193,208296,164894,6422,1.96625585,5709,1.747953075
2023-11-30 18:12:03.922,80194,208356,164902,14251,4.363299925,5970,1.82786475
2023-11-30 18:12:03.922,80195,208400,164928,453,0.138697275,6045,1.850827875
2023-11-30 18:12:03.922,80196,208444,164945,536,0.1641098,5932,1.8162301
2023-11-30 18:12:03.953,80197,208491,164949,14329,4.387181575,6114,1.87195395
2023-11-30 18:12:03.953,80198,208539,164964,6143,1.880833025,6263,1.917574025
2023-11-30 18:12:03.953,80199,208592,164959,-3772,-1.1548921,6070,1.85848225
2023-11-30 18:12:03.953,80200,208629,164991,11422,3.49713085,6045,1.850827875
2023-11-30 18:12:03.953,80201,208666,165016,11398,3.48978265,6179,1.891855325
2023-11-30 18:12:03.953,80202,208724,165018,-3593,-1.100086775,6002,1.83766235
2023-11-30 18:12:03.953,80203,208791,165050,5979,1.830620325,5834,1.78622495
2023-11-30 18:12:03.984,80204,208808,165055,14301,4.378608675,5993,1.834906775
2023-11-30 18:12:03.984,80205,208800,165048,692,0.2118731,6004,1.8382747
2023-11-30 18:12:03.984,80206,208742,165022,-310,-0.09491425,5830,1.78500025
2023-11-30 18:12:03.984,80207,208598,164956,13973,4.278183275,5956,1.8235783
2023-11-30 18:12:03.984,80208,208316,164825,6401,1.959826175,6077,1.860625475
2023-11-30 18:12:04.016,80209,207873,164654,-4204,-1.2871597,5873,1.798165775
2023-11-30 18:12:04.016,80210,207299,164429,10816,3.3115888,5845,1.789592875
2023-11-30 18:12:04.016,80211,206580,164158,11535,3.531728625,6010,1.84011175
2023-11-30 18:12:04.016,80212,205814,163887,-3654,-1.11876345,5889,1.803064575
2023-11-30 18:12:04.016,80213,205128,163651,5163,1.580781525,5755,1.762037125
2023-11-30 18:12:04.016,80214,204569,163470,14257,4.365136975,5924,1.8137807
2023-11-30 18:12:04.016,80215,204144,163328,962,0.29454035,5924,1.8137807
2023-11-30 18:12:04.046,80216,203713,163186,-997,-0.305256475,5706,1.74703455
2023-11-30 18:12:04.046,80217,203329,163068,13876,4.2484843,5788,1.7721409
2023-11-30 18:12:04.046,80218,202985,162934,7122,2.18057835,5900,1.8064325
2023-11-30 18:12:04.046,80219,202712,162859,-4330,-1.32573775,5701,1.745503675
2023-11-30 18:12:04.046,80220,202497,162789,10640,3.257702,5673,1.736930775
2023-11-30 18:12:04.046,80221,202304,162741,11913,3.647462775,5853,1.792042275
2023-11-30 18:12:04.077,80222,202156,162706,-3366,-1.03058505,5749,1.760200075
2023-11-30 18:12:04.077,80223,202033,162665,4949,1.515260075,5604,1.7158047
2023-11-30 18:12:04.077,80224,201936,162636,14590,4.46709325,5762,1.76418035
2023-11-30 18:12:04.077,80225,201832,162615,1515,0.463855125,5766,1.76540505
2023-11-30 18:12:04.077,80226,201782,162598,-1050,-0.32148375,5543,1.697128025
2023-11-30 18:12:04.077,80227,201740,162591,14391,4.406164425,5608,1.7170294
2023-11-30 18:12:04.077,80228,201703,162587,8059,2.467464325,5714,1.74948395
2023-11-30 18:12:04.077,80229,201678,162580,-3803,-1.164383525,5508,1.6864119
2023-11-30 18:12:04.108,80230,201688,162578,10792,3.3042406,5463,1.672634025
2023-11-30 18:12:04.108,80231,201710,162595,12987,3.976294725,5640,1.726827
2023-11-30 18:12:04.108,80232,201744,162595,-2363,-0.723491525,5536,1.6949848
2023-11-30 18:12:04.108,80233,201799,162625,5175,1.584455625,5373,1.645078275
2023-11-30 18:12:04.108,80234,201859,162642,15460,4.7334655,5523,1.691004525
2023-11-30 18:12:04.108,80235,201922,162676,2590,0.79299325,5551,1.699577425
2023-11-30 18:12:04.108,80236,201990,162701,-882,-0.27004635,5354,1.63926095
2023-11-30 18:12:04.139,80237,202058,162737,14415,4.413512625,5451,1.668959925
2023-11-30 18:12:04.139,80238,202114,162759,8640,2.645352,5609,1.717335575
2023-11-30 18:12:04.139,80239,202192,162769,-3862,-1.18244785,5447,1.667735225
2023-11-30 18:12:04.139,80240,202252,162805,10496,3.2136128,5428,1.6619179
2023-11-30 18:12:04.139,80241,202310,162821,13409,4.105500575,5642,1.72743935
2023-11-30 18:12:04.169,80242,202339,162837,-2044,-0.6258217,5580,1.7084565
2023-11-30 18:12:04.169,80243,202377,162854,4503,1.378706025,5450,1.66865375
2023-11-30 18:12:04.169,80244,202398,162856,15521,4.752142175,5653,1.730807275
2023-11-30 18:12:04.169,80245,202408,162860,3253,0.995987275,5749,1.760200075
2023-11-30 18:12:04.200,80246,202430,162849,-1251,-0.383024925,5600,1.71458
2023-11-30 18:12:04.200,80247,202424,162858,14212,4.3513591,5736,1.7562198
2023-11-30 18:12:04.200,80248,202436,162847,9232,2.8266076,5949,1.821435075
2023-11-30 18:12:04.200,80249,202410,162838,-3767,-1.153361225,5846,1.78989905
2023-11-30 18:12:04.200,80250,202433,162845,10060,3.0801205,5872,1.7978596
2023-11-30 18:12:04.200,80251,202453,162853,13539,4.145303325,6137,1.878995975
2023-11-30 18:12:04.230,80252,202441,162843,-1749,-0.535500075,6131,1.877158925
2023-11-30 18:12:04.230,80253,202454,162851,4130,1.26450275,6036,1.8480723
2023-11-30 18:12:04.230,80254,202472,162865,15248,4.6685564,6259,1.916349325
2023-11-30 18:12:04.230,80255,202507,162875,3477,1.064570475,6362,1.94788535
2023-11-30 18:12:04.230,80256,202556,162880,-1655,-0.506719625,6186,1.89399855
2023-11-30 18:12:04.230,80257,202604,162914,13922,4.26256835,6268,1.9191049
2023-11-30 18:12:04.270,80258,202679,162945,9558,2.92642065,6433,1.969623775
2023-11-30 18:12:04.270,80259,202757,162966,-3779,-1.157035325,6273,1.920635775
2023-11-30 18:12:04.270,80260,202840,163001,9606,2.94111705,6220,1.9044085
2023-11-30 18:12:04.270,80261,202928,163034,13692,4.1921481,6421,1.965949675
2023-11-30 18:12:04.270,80262,203035,163070,-1293,-0.395884275,6367,1.949416225
2023-11-30 18:12:04.270,80263,203142,163095,3622,1.10896585,6208,1.9007344
2023-11-30 18:12:04.270,80264,203205,163138,15105,4.624773375,6368,1.9497224
2023-11-30 18:12:04.301,80265,203285,163153,4043,1.237865525,6435,1.970236125
2023-11-30 18:12:04.301,80266,203302,163159,-1831,-0.560606425,6232,1.9080826
2023-11-30 18:12:04.301,80267,203324,163165,13548,4.1480589,6296,1.9276778
2023-11-30 18:12:04.301,80268,203328,163163,9798,2.99990265,6466,1.97972755
2023-11-30 18:12:04.301,80269,203346,163155,-3792,-1.1610156,6312,1.9325766
2023-11-30 18:12:04.301,80270,203343,163156,9080,2.780069,6251,1.913899925
2023-11-30 18:12:04.301,80271,203347,163158,13761,4.213274175,6443,1.972685525
2023-11-30 18:12:04.332,80272,203326,163157,-1050,-0.32148375,6379,1.953090325
2023-11-30 18:12:04.332,80273,203316,163148,2926,0.89586805,6191,1.895529425
2023-11-30 18:12:04.332,80274,203327,163141,15149,4.638245075,6329,1.937781575
2023-11-30 18:12:04.332,80275,203360,163136,4590,1.40534325,6397,1.958601475
2023-11-30 18:12:04.332,80276,203370,163144,-2153,-0.659194775,6188,1.8946109
2023-11-30 18:12:04.332,80277,203381,163160,13285,4.067534875,6231,1.907776425
2023-11-30 18:12:04.332,80278,203409,163153,10211,3.126352925,6393,1.957376775
2023-11-30 18:12:04.332,80279,203426,163170,-3560,-1.089983,6242,1.91114435
2023-11-30 18:12:04.332,80280,203437,163170,8749,2.678725075,6171,1.889405925
2023-11-30 18:12:04.362,80281,203461,163179,14114,4.32135395,6362,1.94788535
2023-11-30 18:12:04.362,80282,203504,163190,-554,-0.16962095,6320,1.935026
2023-11-30 18:12:04.362,80283,203524,163200,2615,0.800647625,6148,1.8823639
2023-11-30 18:12:04.362,80284,203548,163213,15012,4.5962991,6293,1.926759275
2023-11-30 18:12:04.362,80285,203614,163222,4918,1.50576865,6373,1.951253275
2023-11-30 18:12:04.362,80286,203651,163242,-2531,-0.774928925,6165,1.887568875
2023-11-30 18:12:04.362,80287,203706,163258,13047,3.994665225,6198,1.89767265
2023-11-30 18:12:04.393,80288,203784,163297,10718,3.28158365,6362,1.94788535
2023-11-30 18:12:04.393,80289,203893,163336,-3596,-1.1010053,6211,1.901652925
2023-11-30 18:12:04.393,80290,204016,163377,8067,2.469913725,6116,1.8725663
2023-11-30 18:12:04.393,80291,204115,163417,14026,4.29441055,6295,1.927371625
2023-11-30 18:12:04.393,80292,204267,163445,-481,-0.147270175,6260,1.9166555
2023-11-30 18:12:04.424,80293,204361,163496,1919,0.587549825,6083,1.862462525
2023-11-30 18:12:04.424,80294,204476,163541,14853,4.547617275,6220,1.9044085
2023-11-30 18:12:04.424,80295,204602,163597,5407,1.655488225,6313,1.932882775
2023-11-30 18:12:04.455,80296,204742,163640,-2889,-0.884539575,6121,1.874097175
2023-11-30 18:12:04.455,80297,204901,163685,12364,3.7855477,6160,1.886038
2023-11-30 18:12:04.455,80298,205041,163740,10777,3.299647975,6345,1.942680375
2023-11-30 18:12:04.455,80299,205186,163760,-3714,-1.13713395,6222,1.90502085
2023-11-30 18:12:04.455,80300,205277,163831,7276,2.2277293,6143,1.880833025
2023-11-30 18:12:04.455,80301,205420,163848,13906,4.25766955,6342,1.94176185
2023-11-30 18:12:04.485,80302,205515,163879,-250,-0.07654375,6326,1.93686305
2023-11-30 18:12:04.485,80303,205641,163923,1126,0.34475305,6140,1.8799145
2023-11-30 18:12:04.485,80304,205742,163963,14593,4.468011775,6265,1.918186375
2023-11-30 18:12:04.485,80305,205870,164002,5612,1.7182541,6362,1.94788535
2023-11-30 18:12:04.485,80306,205990,164040,-3455,-1.057834625,6163,1.886956525
2023-11-30 18:12:04.485,80307,206129,164095,11920,3.649606,6175,1.890630625
2023-11-30 18:12:04.516,80308,206220,164115,10884,3.3324087,6340,1.9411495
2023-11-30 18:12:04.516,80309,206353,164154,-3722,-1.13958335,6197,1.897366475
2023-11-30 18:12:04.516,80310,206428,164193,6792,2.0795406,6076,1.8603193
2023-11-30 18:12:04.516,80311,206533,164212,14146,4.33115155,6241,1.910838175
2023-11-30 18:12:04.516,80312,206577,164225,203,0.062153525,6211,1.901652925
2023-11-30 18:12:04.516,80313,206641,164257,890,0.27249575,6006,1.83888705
2023-11-30 18:12:04.516,80314,206675,164263,14479,4.433107825,6111,1.871035425
2023-11-30 18:12:04.516,80315,206718,164268,6071,1.858788425,6203,1.899203525
2023-11-30 18:12:04.548,80316,206736,164279,-3427,-1.049261725,5992,1.8346006
2023-11-30 18:12:04.548,80317,206761,164299,11843,3.626030525,5978,1.83031415
2023-11-30 18:12:04.548,80318,206730,164277,11448,3.5050914,6128,1.8762404
2023-11-30 18:12:04.548,80319,206716,164268,-3393,-1.038851775,5977,1.830007975
2023-11-30 18:12:04.548,80320,206700,164254,6384,1.9546212,5836,1.7868373
2023-11-30 18:12:04.548,80321,206628,164219,14460,4.4272905,5994,1.83521295
2023-11-30 18:12:04.548,80322,206552,164196,701,0.214628675,5975,1.829395625
2023-11-30 18:12:04.579,80323,206437,164154,498,0.15247515,5765,1.765098875
2023-11-30 18:12:04.579,80324,206320,164082,14607,4.472298225,5858,1.79357315
2023-11-30 18:12:04.579,80325,206177,164029,6691,2.048616925,5954,1.82296595
2023-11-30 18:12:04.579,80326,206019,163972,-3248,-0.9944564,5743,1.758363025
2023-11-30 18:12:04.579,80327,205881,163905,11625,3.559284375,5721,1.751627175
2023-11-30 18:12:04.609,80328,205729,163865,11626,3.55959055,5893,1.804289275
2023-11-30 18:12:04.609,80329,205618,163825,-3413,-1.044975275,5784,1.7709162
2023-11-30 18:12:04.609,80330,205525,163783,5436,1.6643673,5677,1.738155475
2023-11-30 18:12:04.609,80331,205440,163758,13804,4.2264397,5872,1.7978596
2023-11-30 18:12:04.609,80332,205375,163739,186,0.05694855,5893,1.804289275
2023-11-30 18:12:04.609,80333,205327,163726,-870,-0.26637225,5707,1.747340725
2023-11-30 18:12:04.609,80334,205312,163725,14170,4.33849975,5825,1.783469375
2023-11-30 18:12:04.640,80335,205303,163711,7698,2.35693515,5964,1.8260277
2023-11-30 18:12:04.640,80336,205286,163703,-2480,-0.759314,5795,1.774284125
2023-11-30 18:12:04.640,80337,205294,163704,12599,3.857498825,5801,1.776121175
2023-11-30 18:12:04.640,80338,205275,163697,13343,4.085293025,6006,1.83888705
2023-11-30 18:12:04.640,80339,205252,163693,-2063,-0.631639025,5924,1.8137807
2023-11-30 18:12:04.640,80340,205233,163684,6398,1.95890765,5814,1.78010145
2023-11-30 18:12:04.671,80341,205213,163673,15363,4.703766525,6003,1.837968525
2023-11-30 18:12:04.671,80342,205215,163667,2241,0.686138175,6035,1.847766125
2023-11-30 18:12:04.671,80343,205190,163667,123,0.037659525,5857,1.793266975
2023-11-30 18:12:04.671,80344,205206,163655,14822,4.53812585,5975,1.829395625
2023-11-30 18:12:04.671,80345,205163,163647,8249,2.525637575,6118,1.87317865
2023-11-30 18:12:04.671,80346,205171,163664,-3314,-1.01466395,5935,1.817148625
2023-11-30 18:12:04.671,80347,205183,163665,11316,3.4646763,5897,1.805513975
2023-11-30 18:12:04.702,80348,205224,163683,12832,3.9288376,6044,1.8505217
2023-11-30 18:12:04.702,80349,205278,163709,-2165,-0.662868875,5886,1.80214605
2023-11-30 18:12:04.702,80350,205327,163705,5419,1.659162325,5675,1.737543125
2023-11-30 18:12:04.702,80351,205385,163745,15167,4.643756225,5784,1.7709162
2023-11-30 18:12:04.702,80352,205469,163775,2516,0.7703363,5792,1.7733656
2023-11-30 18:12:04.702,80353,205532,163803,-474,-0.14512695,5624,1.7219282
2023-11-30 18:12:04.702,80354,205638,163857,14415,4.413512625,5787,1.771834725
2023-11-30 18:12:04.732,80355,205742,163884,8347,2.555642725,6024,1.8443982
2023-11-30 18:12:04.732,80356,205849,163924,-3521,-1.078042175,5960,1.824803
2023-11-30 18:12:04.732,80357,205924,163948,10597,3.244536475,6052,1.8529711
2023-11-30 18:12:04.732,80358,206032,163986,12850,3.93434875,6364,1.9484977
2023-11-30 18:12:04.732,80359,206117,164003,-2105,-0.644498375,6400,1.95952
2023-11-30 18:12:04.732,80360,206210,164046,4828,1.4782129,6375,1.951865625
2023-11-30 18:12:04.763,80361,206308,164068,14976,4.5852768,6662,2.03973785
2023-11-30 18:12:04.763,80362,206368,164104,2772,0.8487171,6807,2.084133225
2023-11-30 18:12:04.763,80363,206464,164135,-775,-0.237285625,6681,2.045555175
2023-11-30 18:12:04.763,80364,206547,164168,14187,4.343704725,6787,2.078009725
2023-11-30 18:12:04.763,80365,206646,164198,8669,2.654231075,6906,2.11444455
2023-11-30 18:12:04.763,80366,206726,164215,-3626,-1.11019055,6672,2.0427996
2023-11-30 18:12:04.763,80367,206790,164240,10281,3.147785175,6551,2.005752425
2023-11-30 18:12:04.763,80368,206831,164257,13131,4.020383925,6661,2.039431675
2023-11-30 18:12:04.793,80369,206844,164258,-1728,-0.5290704,6524,1.9974857
2023-11-30 18:12:04.793,80370,206837,164240,4576,1.4010568,6341,1.941455675
2023-11-30 18:12:04.793,80371,206753,164192,14935,4.572723625,6496,1.9889128
2023-11-30 18:12:04.793,80372,206523,164093,3374,1.03303445,6544,2.0036092
2023-11-30 18:12:04.793,80373,206174,163947,-1028,-0.3147479,6332,1.9387001
2023-11-30 18:12:04.793,80374,205715,163764,13840,4.237462,6376,1.9521718
2023-11-30 18:12:04.826,80375,205159,163580,9113,2.790172775,6489,1.986769575
2023-11-30 18:12:04.826,80376,204623,163391,-3677,-1.125805475,6289,1.925534575
2023-11-30 18:12:04.826,80377,204113,163226,9870,3.02194725,6218,1.90379615
2023-11-30 18:12:04.826,80378,203625,163060,13696,4.1933728,6398,1.95890765
2023-11-30 18:12:04.826,80379,203120,162886,-1577,-0.482837975,6325,1.936556875
2023-11-30 18:12:04.857,80380,202671,162734,4317,1.321757475,6162,1.88665035
2023-11-30 18:12:04.857,80381,202255,162608,16206,4.96187205,6310,1.93196425
2023-11-30 18:12:04.857,80382,201852,162466,3955,1.210922125,6355,1.945742125
2023-11-30 18:12:04.857,80383,201456,162343,-1649,-0.504882575,6144,1.8811392
2023-11-30 18:12:04.857,80384,201074,162213,15322,4.69121335,6204,1.8995097
2023-11-30 18:12:04.857,80385,200694,162091,10321,3.160032175,6363,1.948191525
2023-11-30 18:12:04.889,80386,200310,161967,-4671,-1.430143425,6215,1.902877625
2023-11-30 18:12:04.889,80387,199953,161833,10598,3.24484265,6168,1.8884874
2023-11-30 18:12:04.889,80388,199631,161746,15653,4.792557275,6364,1.9484977
2023-11-30 18:12:04.889,80389,199328,161655,-1649,-0.504882575,6314,1.93318895
2023-11-30 18:12:04.889,80390,199034,161548,4072,1.2467446,6162,1.88665035
2023-11-30 18:12:04.889,80391,198789,161475,17750,5.43460625,6321,1.935332175
2023-11-30 18:12:04.919,80392,198572,161406,4595,1.406874125,6390,1.95645825
2023-11-30 18:12:04.919,80393,198383,161353,-2335,-0.714918625,6189,1.894917075
2023-11-30 18:12:04.919,80394,198250,161313,16319,4.996469825,6246,1.91236905
2023-11-30 18:12:04.919,80395,198116,161276,11865,3.632766375,6411,1.962887925
2023-11-30 18:12:04.919,80396,198034,161255,-3942,-1.20694185,6264,1.9178802
2023-11-30 18:12:04.951,80397,197970,161244,11068,3.3887449,6214,1.90257145
2023-11-30 18:12:04.951,80398,197958,161246,16862,5.16272285,6443,1.972685525
2023-11-30 18:12:04.951,80399,197933,161239,-459,-0.140534325,6439,1.971460825
2023-11-30 18:12:04.951,80400,197928,161248,4274,1.30859195,6308,1.9313519
2023-11-30 18:12:04.951,80401,197940,161258,18472,5.6556646,6515,1.994730125
2023-11-30 18:12:04.951,80402,197974,161273,6190,1.89522325,6655,2.037594625
2023-11-30 18:12:04.983,80403,198017,161307,-1342,-0.41088685,6485,1.985544875
2023-11-30 18:12:04.983,80404,198090,161314,15972,4.8902271,6574,2.01279445
2023-11-30 18:12:04.983,80405,198159,161338,12608,3.8602544,6815,2.086582625
2023-11-30 18:12:04.983,80406,198206,161357,-2829,-0.866169075,6723,2.058414525
2023-11-30 18:12:04.983,80407,198287,161385,10172,3.1144121,6703,2.052291025
2023-11-30 18:12:04.983,80408,198376,161407,16003,4.899718525,6980,2.1371015
2023-11-30 18:12:05.014,80409,198436,161425,-116,-0.0355163,7001,2.143531175
2023-11-30 18:12:05.014,80410,198494,161445,3188,0.9760859,6857,2.099441975
2023-11-30 18:12:05.014,80411,198561,161456,16751,5.128737425,7070,2.16465725
2023-11-30 18:12:05.014,80412,198618,161488,6036,1.8480723,7223,2.211502025
2023-11-30 18:12:05.045,80413,198680,161495,-1882,-0.57622135,7059,2.161289325
2023-11-30 18:12:05.045,80414,198753,161532,14342,4.39116185,7183,2.199255025
2023-11-30 18:12:05.045,80415,198836,161535,11987,3.670119725,7474,2.28835195
2023-11-30 18:12:05.045,80416,198908,161580,-2884,-0.8830087,7409,2.268450575
2023-11-30 18:12:05.045,80417,199024,161622,9290,2.84436575,7410,2.26875675
2023-11-30 18:12:05.045,80418,199157,161649,15629,4.785209075,7719,2.363364825
2023-11-30 18:12:05.045,80419,199304,161715,537,0.164415975,7766,2.37775505
2023-11-30 18:12:05.075,80420,199439,161758,2731,0.836163925,7642,2.33978935
2023-11-30 18:12:05.075,80421,199617,161822,16141,4.941970675,7874,2.41082195
2023-11-30 18:12:05.075,80422,199766,161886,6337,1.940230975,8042,2.46225935
2023-11-30 18:12:05.075,80423,199921,161928,-2363,-0.723491525,7872,2.4102096
2023-11-30 18:12:05.075,80424,200049,161969,13529,4.142241575,7944,2.4322542
2023-11-30 18:12:05.075,80425,200173,162009,12061,3.692776675,8143,2.493183025
2023-11-30 18:12:05.106,80426,200294,162041,-2973,-0.910258275,7961,2.437459175
2023-11-30 18:12:05.106,80427,200370,162064,8240,2.522882,7808,2.3906144
2023-11-30 18:12:05.106,80428,200450,162090,15211,4.657227925,7948,2.4334789
2023-11-30 18:12:05.106,80429,200524,162109,697,0.213403975,7843,2.401330525
2023-11-30 18:12:05.106,80430,200584,162112,2096,0.6417428,7564,2.3159077
2023-11-30 18:12:05.106,80431,200619,162156,15684,4.8020487,7628,2.3355029
2023-11-30 18:12:05.106,80432,200700,162174,6734,2.06178245,7659,2.344994325
2023-11-30 18:12:05.147,80433,200762,162198,-2442,-0.74767935,7374,2.25773445
2023-11-30 18:12:05.147,80434,200815,162200,13160,4.029263,7328,2.2436504
2023-11-30 18:12:05.147,80435,200890,162239,12285,3.761359875,7462,2.28467785
2023-11-30 18:12:05.147,80436,200953,162256,-2768,-0.8474924,7288,2.2314034
2023-11-30 18:12:05.147,80437,201018,162278,7922,2.42551835,7155,2.190682125
2023-11-30 18:12:05.147,80438,201085,162297,15444,4.7285667,7334,2.24548745
2023-11-30 18:12:05.147,80439,201151,162335,1229,0.376289075,7309,2.237833075
2023-11-30 18:12:05.178,80440,201214,162348,1630,0.49906525,7095,2.172311625
2023-11-30 18:12:05.178,80441,201282,162366,15564,4.7653077,7197,2.203541475
2023-11-30 18:12:05.178,80442,201357,162406,7122,2.18057835,7285,2.230484875
2023-11-30 18:12:05.178,80443,201439,162413,-2690,-0.82361075,7053,2.159452275
2023-11-30 18:12:05.178,80444,201507,162433,12788,3.9153659,7021,2.149654675
2023-11-30 18:12:05.178,80445,201604,162478,12389,3.793202075,7165,2.193743875
2023-11-30 18:12:05.209,80446,201686,162500,-2678,-0.81993665,7005,2.144755875
2023-11-30 18:12:05.209,80447,201799,162534,7189,2.201092075,6858,2.09974815
2023-11-30 18:12:05.209,80448,201905,162583,15213,4.657840275,7017,2.148429975
2023-11-30 18:12:05.209,80449,202017,162620,1689,0.517129575,6993,2.141081775
2023-11-30 18:12:05.209,80450,202132,162663,1088,0.3331184,6777,2.074947975
2023-11-30 18:12:05.209,80451,202272,162713,15146,4.63732655,6884,2.1077087
2023-11-30 18:12:05.209,80452,202414,162761,7394,2.26385795,7004,2.1444497
2023-11-30 18:12:05.240,80453,202543,162814,-2948,-0.9026039,6813,2.085970275
2023-11-30 18:12:05.240,80454,202719,162872,12079,3.698287825,6817,2.087194975
2023-11-30 18:12:05.240,80455,202860,162922,12575,3.850150625,7015,2.147817625
2023-11-30 18:12:05.240,80456,203042,162994,-2597,-0.795136475,6911,2.115975425
2023-11-30 18:12:05.240,80457,203205,163049,6649,2.035757575,6792,2.0795406
2023-11-30 18:12:05.240,80458,203351,163104,15267,4.674373725,6974,2.13526445
2023-11-30 18:12:05.271,80459,203526,163170,1839,0.563055825,6987,2.139244725
2023-11-30 18:12:05.271,80460,203685,163227,473,0.144820775,6792,2.0795406
2023-11-30 18:12:05.271,80461,203834,163271,14857,4.548841975,6899,2.112301325
2023-11-30 18:12:05.271,80462,204024,163322,7566,2.31652005,7020,2.1493485
2023-11-30 18:12:05.271,80463,204185,163385,-3219,-0.985577325,6818,2.08750115
2023-11-30 18:12:05.271,80464,204359,163439,11467,3.510908725,6787,2.078009725
2023-11-30 18:12:05.271,80465,204526,163482,12656,3.8749508,6957,2.130059475
2023-11-30 18:12:05.271,80466,204676,163550,-2472,-0.7568646,6839,2.093930825
2023-11-30 18:12:05.271,80467,204800,163581,5642,1.72743935,6697,2.050453975
2023-11-30 18:12:05.301,80468,204902,163611,14848,4.5460864,6858,2.09974815
2023-11-30 18:12:05.301,80469,205020,163663,2060,0.6307205,6860,2.1003605
2023-11-30 18:12:05.301,80470,205103,163678,-366,-0.11206005,6643,2.033920525
2023-11-30 18:12:05.301,80471,205210,163702,14391,4.406164425,6723,2.058414525
2023-11-30 18:12:05.301,80472,205276,163733,8014,2.45368645,6837,2.093318475
2023-11-30 18:12:05.301,80473,205362,163763,-3539,-1.083553325,6637,2.032083475
2023-11-30 18:12:05.301,80474,205434,163789,10889,3.333939575,6601,2.021061175
2023-11-30 18:12:05.332,80475,205521,163810,12641,3.870358175,6781,2.076172675
2023-11-30 18:12:05.332,80476,205587,163838,-2371,-0.725940925,6679,2.044942825
2023-11-30 18:12:05.332,80477,205662,163855,5261,1.610786675,6527,1.998404225
2023-11-30 18:12:05.332,80478,205746,163892,14937,4.573335975,6680,2.045249
2023-11-30 18:12:05.332,80479,205806,163912,2442,0.74767935,6692,2.0489231
2023-11-30 18:12:05.362,80480,205853,163920,-567,-0.173601225,6473,1.981870775
2023-11-30 18:12:05.362,80481,205923,163932,14336,4.3893248,6540,2.0023845
2023-11-30 18:12:05.362,80482,205950,163942,8597,2.632186475,6658,2.03851315
2023-11-30 18:12:05.362,80483,205972,163959,-3568,-1.0924324,6461,1.978196675
2023-11-30 18:12:05.392,80484,206003,163948,10531,3.224328925,6406,1.96135705
2023-11-30 18:12:05.392,80485,205999,163950,13022,3.98701085,6567,2.010651225
2023-11-30 18:12:05.392,80486,206028,163954,-2056,-0.6294958,6453,1.975747275
2023-11-30 18:12:05.392,80487,206036,163953,4696,1.4377978,6273,1.920635775
2023-11-30 18:12:05.392,80488,206050,163943,15020,4.5987485,6402,1.96013235
2023-11-30 18:12:05.392,80489,206084,163964,2974,0.91056445,6411,1.962887925
2023-11-30 18:12:05.423,80490,206086,163963,-1276,-0.3906793,6188,1.8946109
2023-11-30 18:12:05.423,80491,206121,163989,13324,4.0794757,6250,1.91359375
2023-11-30 18:12:05.423,80492,206162,163990,7966,2.43899005,6381,1.953702675
2023-11-30 18:12:05.423,80493,206182,163992,-4539,-1.389728325,6198,1.89767265
2023-11-30 18:12:05.423,80494,206219,164005,8920,2.731081,6145,1.881445375
2023-11-30 18:12:05.423,80495,206228,164000,12212,3.7390091,6326,1.93686305
2023-11-30 18:12:05.453,80496,206236,164013,-2096,-0.6417428,6248,1.9129814
2023-11-30 18:12:05.453,80497,206271,164013,4504,1.3790122,6095,1.866136625
2023-11-30 18:12:05.453,80498,206280,164020,15903,4.869101025,6265,1.918186375
2023-11-30 18:12:05.453,80499,206318,164029,4526,1.38574805,6334,1.93931245
2023-11-30 18:12:05.453,80500,206334,164036,-517,-0.158292475,6150,1.88297625
2023-11-30 18:12:05.453,80501,206350,164043,14288,4.3746284,6230,1.90747025
2023-11-30 18:12:05.453,80502,206380,164052,9457,2.895496975,6389,1.956152075
2023-11-30 18:12:05.484,80503,206412,164063,-3457,-1.058446975,6229,1.907164075
2023-11-30 18:12:05.484,80504,206413,164049,9769,2.991023575,6180,1.8921615
2023-11-30 18:12:05.484,80505,206453,164061,13672,4.1860246,6371,1.950640925
2023-11-30 18:12:05.484,80506,206490,164061,-1217,-0.372614975,6309,1.931658075
2023-11-30 18:12:05.484,80507,206533,164089,3804,1.1646897,6144,1.8811392
2023-11-30 18:12:05.484,80508,206588,164092,15157,4.640694475,6272,1.9203296
2023-11-30 18:12:05.484,80509,206623,164131,3981,1.218882675,6278,1.92216665
2023-11-30 18:12:05.516,80510,206668,164142,-1567,-0.479776225,6000,1.83705
2023-11-30 18:12:05.516,80511,206701,164156,13562,4.15234535,5964,1.8260277
2023-11-30 18:12:05.516,80512,206731,164158,9670,2.96071225,6018,1.84256115
2023-11-30 18:12:05.516,80513,206791,164171,-3453,-1.057222275,5776,1.7684668
2023-11-30 18:12:05.516,80514,206839,164188,9268,2.8376299,5674,1.73723695
2023-11-30 18:12:05.547,80515,206878,164196,13585,4.159387375,5876,1.7990843
2023-11-30 18:12:05.547,80516,206913,164205,-1114,-0.34107895,5882,1.80092135
2023-11-30 18:12:05.547,80517,206931,164217,3351,1.025992425,5802,1.77642735
2023-11-30 18:12:05.547,80518,206982,164226,15014,4.59691145,6047,1.851440225
2023-11-30 18:12:05.547,80519,207023,164249,4275,1.308898125,6215,1.902877625
2023-11-30 18:12:05.547,80520,207085,164265,-1810,-0.55417675,6111,1.871035425
2023-11-30 18:12:05.547,80521,207141,164279,13338,4.08376215,6254,1.91481845
2023-11-30 18:12:05.578,80522,207215,164301,10023,3.068792025,6509,1.992893075
2023-11-30 18:12:05.578,80523,207275,164325,-3628,-1.1108029,6455,1.976359625
2023-11-30 18:12:05.578,80524,207355,164355,8742,2.67658185,6468,1.9803399
2023-11-30 18:12:05.578,80525,207443,164398,13889,4.252464575,6710,2.05443425
2023-11-30 18:12:05.578,80526,207515,164414,-526,-0.16104805,6675,2.043718125
2023-11-30 18:12:05.578,80527,207591,164434,2779,0.850860325,6467,1.980033725
2023-11-30 18:12:05.610,80528,207682,164479,14871,4.553128425,6538,2.00177215
2023-11-30 18:12:05.610,80529,207763,164501,4780,1.4635165,6534,2.00054745
2023-11-30 18:12:05.610,80530,207834,164519,-2017,-0.617554975,6266,1.91849255
2023-11-30 18:12:05.610,80531,207880,164522,13085,4.006299875,6263,1.917574025
2023-11-30 18:12:05.640,80532,207891,164521,10132,3.1021651,6411,1.962887925
2023-11-30 18:12:05.640,80533,207832,164489,-3685,-1.128254875,6268,1.9191049
2023-11-30 18:12:05.640,80534,207736,164453,8158,2.49777565,6197,1.897366475
2023-11-30 18:12:05.640,80535,207501,164348,13888,4.2521584,6385,1.954927375
2023-11-30 18:12:05.640,80536,207158,164190,-455,-0.139309625,6337,1.940230975
2023-11-30 18:12:05.640,80537,206666,164013,2202,0.67419735,6141,1.880220675
2023-11-30 18:12:05.640,80538,206072,163773,14646,4.48423905,6262,1.91726785
2023-11-30 18:12:05.671,80539,205381,163508,4926,1.50821805,6344,1.9423742
2023-11-30 18:12:05.671,80540,204640,163248,-2719,-0.832489825,6153,1.883894775
2023-11-30 18:12:05.671,80541,204020,163034,12577,3.850762975,6189,1.894917075
2023-11-30 18:12:05.671,80542,203538,162874,10534,3.22524745,6360,1.947273
2023-11-30 18:12:05.671,80543,203132,162747,-3760,-1.151218,6223,1.905327025
2023-11-30 18:12:05.671,80544,202770,162617,7739,2.369488325,6132,1.8774651
2023-11-30 18:12:05.702,80545,202399,162506,14059,4.304514325,6310,1.93196425
2023-11-30 18:12:05.702,80546,202097,162414,-498,-0.15247515,6285,1.924309875
2023-11-30 18:12:05.702,80547,201861,162315,1478,0.45252665,6119,1.873484825
2023-11-30 18:12:05.702,80548,201669,162265,14978,4.58588915,6260,1.9166555
2023-11-30 18:12:05.702,80549,201510,162214,5648,1.7292764,6351,1.944517425
2023-11-30 18:12:05.702,80550,201384,162189,-2840,-0.869537,6140,1.8799145
2023-11-30 18:12:05.702,80551,201289,162156,12530,3.83637275,6143,1.880833025
2023-11-30 18:12:05.702,80552,201195,162127,11152,3.4144636,6300,1.9289025
2023-11-30 18:12:05.734,80553,201138,162118,-3334,-1.02078745,6157,1.885119475
2023-11-30 18:12:05.734,80554,201110,162096,7895,2.417251625,6046,1.85113405
2023-11-30 18:12:05.734,80555,201099,162111,14860,4.5497605,6213,1.902265275
2023-11-30 18:12:05.734,80556,201095,162095,614,0.18799145,6180,1.8921615
2023-11-30 18:12:05.734,80557,201102,162102,1856,0.5682608,5975,1.829395625
2023-11-30 18:12:05.734,80558,201121,162116,15479,4.739282825,6071,1.858788425
2023-11-30 18:12:05.734,80559,201148,162139,6883,2.107402525,6145,1.881445375
2023-11-30 18:12:05.765,80560,201203,162151,-2210,-0.67664675,5930,1.81561775
2023-11-30 18:12:05.765,80561,201238,162165,13088,4.0072184,5933,1.816536275
2023-11-30 18:12:05.765,80562,201283,162181,12203,3.736253525,6107,1.869810725
2023-11-30 18:12:05.765,80563,201322,162198,-2497,-0.764518975,5979,1.830620325
2023-11-30 18:12:05.765,80564,201385,162210,7979,2.442970325,5862,1.79479785
2023-11-30 18:12:05.796,80565,201432,162221,15699,4.806641325,6041,1.849603175
2023-11-30 18:12:05.796,80566,201485,162237,1437,0.439973475,6041,1.849603175
2023-11-30 18:12:05.796,80567,201519,162252,1665,0.509781375,5864,1.7954102
2023-11-30 18:12:05.796,80568,201550,162272,15757,4.824399475,5997,1.836131475
2023-11-30 18:12:05.796,80569,201584,162272,7291,2.232321925,6130,1.87685275
2023-11-30 18:12:05.796,80570,201603,162283,-2363,-0.723491525,5971,1.828170925
2023-11-30 18:12:05.796,80571,201620,162298,12919,3.955474825,6022,1.84378585
2023-11-30 18:12:05.827,80572,201641,162310,12595,3.856274125,6255,1.915124625
2023-11-30 18:12:05.827,80573,201646,162318,-2229,-0.682464075,6191,1.895529425
2023-11-30 18:12:05.827,80574,201661,162299,7524,2.3036607,6135,1.878383625
2023-11-30 18:12:05.827,80575,201652,162302,15523,4.752754525,6387,1.955539725
2023-11-30 18:12:05.827,80576,201624,162297,1888,0.5780584,6469,1.980646075
2023-11-30 18:12:05.827,80577,201627,162289,1244,0.3808817,6361,1.947579175
2023-11-30 18:12:05.858,80578,201621,162307,15400,4.715095,6556,2.0072833
2023-11-30 18:12:05.858,80579,201628,162296,7721,2.363977175,6752,2.0672936
2023-11-30 18:12:05.858,80580,201657,162327,-2628,-0.8046279,6633,2.030858775
2023-11-30 18:12:05.858,80581,201696,162317,12467,3.817083725,6697,2.050453975
2023-11-30 18:12:05.858,80582,201756,162346,12908,3.9521069,6949,2.127610075
2023-11-30 18:12:05.889,80583,201801,162359,-2245,-0.687362875,6901,2.112913675
2023-11-30 18:12:05.889,80584,201854,162365,6838,2.09362465,6831,2.091481425
2023-11-30 18:12:05.889,80585,201881,162394,15530,4.75489775,7055,2.160064625
2023-11-30 18:12:05.889,80586,201954,162415,2155,0.659807125,7099,2.173536325
2023-11-30 18:12:05.889,80587,201993,162425,841,0.257493175,6920,2.118731
2023-11-30 18:12:05.889,80588,202037,162437,15246,4.66794405,7032,2.1530226
2023-11-30 18:12:05.889,80589,202050,162452,8136,2.4910398,7164,2.1934377
2023-11-30 18:12:05.920,80590,202084,162448,-2789,-0.853922075,6988,2.1395509
2023-11-30 18:12:05.920,80591,202093,162445,11875,3.635828125,6987,2.139244725
2023-11-30 18:12:05.920,80592,202070,162437,12963,3.968946525,7179,2.198030325
2023-11-30 18:12:05.920,80593,202062,162439,-2108,-0.6454169,7072,2.1652696
2023-11-30 18:12:05.920,80594,202048,162430,6222,1.90502085,6932,2.1224051
2023-11-30 18:12:05.920,80595,202049,162433,15517,4.750917475,7098,2.17323015
2023-11-30 18:12:05.951,80596,202066,162422,2478,0.75870165,7110,2.17690425
2023-11-30 18:12:05.951,80597,202085,162434,276,0.0845043,6903,2.113526025
2023-11-30 18:12:05.951,80598,202085,162428,15000,4.592625,6994,2.14138795
2023-11-30 18:12:05.951,80599,202094,162438,8422,2.57860585,7120,2.179966
2023-11-30 18:12:05.951,80600,202107,162421,-3046,-0.93260905,6932,2.1224051
2023-11-30 18:12:05.951,80601,202115,162446,11348,3.4744739,6900,2.1126075
2023-11-30 18:12:05.951,80602,202136,162439,13057,3.997726975,7077,2.166800475
2023-11-30 18:12:05.951,80603,202163,162454,-2058,-0.63010815,6971,2.134345925
2023-11-30 18:12:05.982,80604,202204,162458,5509,1.686718075,6820,2.0881135
2023-11-30 18:12:05.982,80605,202270,162481,15452,4.7310161,6981,2.137407675
2023-11-30 18:12:05.982,80606,202283,162497,2837,0.868618475,7007,2.145368225
2023-11-30 18:12:05.982,80607,202356,162508,-382,-0.11695885,6806,2.08382705
2023-11-30 18:12:05.982,80608,202412,162526,14425,4.416574375,6891,2.109851925
2023-11-30 18:12:05.982,80609,202487,162549,8763,2.683011525,7022,2.14996085
2023-11-30 18:12:05.982,80610,202561,162572,-3267,-1.000273725,6832,2.0917876
2023-11-30 18:12:06.012,80611,202656,162604,10828,3.3152629,6784,2.0770912
2023-11-30 18:12:06.012,80612,202750,162652,13139,4.022833325,6960,2.130978
2023-11-30 18:12:06.012,80613,202830,162679,-2049,-0.627352575,6862,2.10097285
2023-11-30 18:12:06.012,80614,202911,162708,4981,1.525057675,6705,2.052903375
2023-11-30 18:12:06.012,80615,202970,162729,15312,4.6881516,6863,2.101279025
2023-11-30 18:12:06.043,80616,203053,162754,3163,0.968431525,6896,2.1113828
2023-11-30 18:12:06.043,80617,203116,162786,-919,-0.281374825,6686,2.04708605
2023-11-30 18:12:06.043,80618,203195,162797,14158,4.33482565,6751,2.066987425
2023-11-30 18:12:06.043,80619,203276,162834,8982,2.75006385,6877,2.105565475
2023-11-30 18:12:06.043,80620,203349,162866,-3427,-1.049261725,6685,2.046779875
2023-11-30 18:12:06.043,80621,203431,162876,10251,3.138599925,6625,2.028409375
2023-11-30 18:12:06.043,80622,203498,162906,13343,4.085293025,6801,2.082296175
2023-11-30 18:12:06.076,80623,203539,162924,-1781,-0.545297675,6715,2.055965125
2023-11-30 18:12:06.076,80624,203611,162955,4290,1.31349075,6547,2.004527725
2023-11-30 18:12:06.076,80625,203685,162974,15042,4.60548435,6688,2.0476984
2023-11-30 18:12:06.076,80626,203736,162998,3299,1.010071325,6718,2.05688365
2023-11-30 18:12:06.076,80627,203785,163007,-1298,-0.39741515,6500,1.9901375
2023-11-30 18:12:06.076,80628,203821,163037,13788,4.2215409,6552,2.0060586
2023-11-30 18:12:06.107,80629,203846,163031,9184,2.8119112,6683,2.046167525
2023-11-30 18:12:06.107,80630,203875,163041,-3689,-1.129479575,6497,1.989218975
2023-11-30 18:12:06.107,80631,203892,163041,9535,2.919378625,6431,1.969011425
2023-11-30 18:12:06.107,80632,203930,163045,13354,4.08866095,6613,2.024735275
2023-11-30 18:12:06.107,80633,203945,163060,-1460,-0.4470155,6538,2.00177215
2023-11-30 18:12:06.137,80634,203956,163049,3824,1.1708132,6364,1.9484977
2023-11-30 18:12:06.137,80635,203976,163061,15049,4.607627575,6504,1.9913622
2023-11-30 18:12:06.137,80636,204013,163079,3898,1.19347015,6554,2.00667095
2023-11-30 18:12:06.137,80637,204094,163107,-1502,-0.45987485,6343,1.942068025
2023-11-30 18:12:06.137,80638,204162,163118,13531,4.142853925,6390,1.95645825
2023-11-30 18:12:06.137,80639,204227,163152,9554,2.92519595,6532,1.9999351
2023-11-30 18:12:06.137,80640,204291,163182,-3402,-1.04160735,6361,1.947579175
2023-11-30 18:12:06.168,80641,204355,163191,9316,2.8523263,6291,1.926146925
2023-11-30 18:12:06.168,80642,204451,163230,13596,4.1627553,6469,1.980646075
2023-11-30 18:12:06.168,80643,204527,163259,-1054,-0.32270845,6396,1.9582953
2023-11-30 18:12:06.168,80644,204581,163280,3434,1.05140495,6211,1.901652925
2023-11-30 18:12:06.168,80645,204655,163303,15057,4.610076975,6343,1.942068025
2023-11-30 18:12:06.168,80646,204682,163314,4334,1.32696245,6397,1.958601475
2023-11-30 18:12:06.215,80647,204742,163325,-2020,-0.6184735,6179,1.891855325
2023-11-30 18:12:06.215,80648,204785,163326,12877,3.942615475,6209,1.901040575
2023-11-30 18:12:06.215,80649,204813,163346,9084,2.7812937,6348,1.9435989
2023-11-30 18:12:06.215,80650,204852,163346,-4761,-1.457699175,6180,1.8921615
2023-11-30 18:12:06.215,80651,204925,163386,7489,2.292944575,6102,1.86827985
2023-11-30 18:12:06.215,80652,204990,163396,12447,3.810960225,6287,1.924922225
2023-11-30 18:12:06.215,80653,205052,163431,-1813,-0.555095275,6243,1.911450525
2023-11-30 18:12:06.215,80654,205115,163446,2549,0.780440075,6080,1.861544
2023-11-30 18:12:06.251,80655,205191,163472,15524,4.7530607,6232,1.9080826
2023-11-30 18:12:06.251,80656,205264,163503,5762,1.76418035,6317,1.934107475
2023-11-30 18:12:06.251,80657,205342,163537,-1402,-0.42925735,6130,1.87685275
2023-11-30 18:12:06.251,80658,205442,163579,13511,4.136730425,6184,1.8933862
2023-11-30 18:12:06.251,80659,205539,163596,10587,3.241474725,6358,1.94666065
2023-11-30 18:12:06.251,80660,205631,163636,-3434,-1.05140495,6224,1.9056332
2023-11-30 18:12:06.251,80661,205697,163669,8266,2.53084255,6157,1.885119475
2023-11-30 18:12:06.281,80662,205756,163670,13866,4.24542255,6356,1.9460483
2023-11-30 18:12:06.281,80663,205795,163683,-624,-0.1910532,6330,1.93808775
2023-11-30 18:12:06.281,80664,205807,163702,2122,0.64970335,6154,1.88420095
2023-11-30 18:12:06.281,80665,205879,163701,14810,4.53445175,6269,1.919411075
2023-11-30 18:12:06.281,80666,205903,163699,5062,1.54985785,6307,1.931045725
2023-11-30 18:12:06.312,80667,205942,163715,-2566,-0.78564505,6033,1.847153775
2023-11-30 18:12:06.312,80668,205992,163733,12527,3.835454225,5963,1.825721525
2023-11-30 18:12:06.312,80669,206028,163749,10514,3.21912395,6012,1.8407241
2023-11-30 18:12:06.312,80670,206065,163756,-3632,-1.1120276,5758,1.76295565
2023-11-30 18:12:06.312,80671,206160,163780,7641,2.339483175,5582,1.70906885
2023-11-30 18:12:06.312,80672,206195,163796,13851,4.240829925,5727,1.753464225
2023-11-30 18:12:06.312,80673,206261,163827,-224,-0.0685832,5715,1.749790125
2023-11-30 18:12:06.343,80674,206324,163849,1660,0.5082505,5590,1.71151825
2023-11-30 18:12:06.343,80675,206407,163872,14611,4.473522925,5796,1.7745903
2023-11-30 18:12:06.343,80676,206467,163909,5353,1.638954775,5976,1.8297018
2023-11-30 18:12:06.343,80677,206552,163934,-3074,-0.94118195,5873,1.798165775
2023-11-30 18:12:06.343,80678,206647,163975,12145,3.718495375,5988,1.8333759
2023-11-30 18:12:06.343,80679,206755,164006,10727,3.284339225,6249,1.913287575
2023-11-30 18:12:06.373,80680,206853,164048,-3723,-1.139889525,6206,1.90012205
2023-11-30 18:12:06.373,80681,206965,164104,6981,2.137407675,6195,1.896754125
2023-11-30 18:12:06.373,80682,207090,164133,13878,4.24909665,6447,1.973910225
2023-11-30 18:12:06.373,80683,207177,164167,-104,-0.0318422,6458,1.97727815
2023-11-30 18:12:06.373,80684,207268,164207,1015,0.310767625,6251,1.913899925
2023-11-30 18:12:06.403,80685,207353,164231,14195,4.346154125,6305,1.930433375
2023-11-30 18:12:06.403,80686,207380,164233,5614,1.71886645,6315,1.933495125
2023-11-30 18:12:06.403,80687,207424,164250,-3333,-1.020481275,6029,1.845929075
2023-11-30 18:12:06.403,80688,207508,164262,11599,3.551323825,5969,1.827558575
2023-11-30 18:12:06.403,80689,207542,164267,10761,3.294749175,6104,1.8688922
2023-11-30 18:12:06.403,80690,207478,164229,-3592,-1.0997806,5973,1.828783275
2023-11-30 18:12:06.403,80691,207404,164197,6566,2.01034505,5881,1.800615175
2023-11-30 18:12:06.445,80692,207218,164122,13923,4.262874525,6074,1.85970695
2023-11-30 18:12:06.445,80693,206937,163986,233,0.071338775,6064,1.8566452
2023-11-30 18:12:06.445,80694,206553,163837,389,0.119102075,5856,1.7929608
2023-11-30 18:12:06.445,80695,206028,163625,14027,4.294716725,5947,1.820822725
2023-11-30 18:12:06.445,80696,205408,163389,5926,1.81439305,6038,1.84868465
2023-11-30 18:12:06.445,80697,204762,163146,-3704,-1.1340722,5836,1.7868373
2023-11-30 18:12:06.476,80698,204200,162963,11274,3.45181695,5829,1.784694075
2023-11-30 18:12:06.476,80699,203699,162806,11121,3.404972175,5996,1.8358253
2023-11-30 18:12:06.476,80700,203289,162658,-3479,-1.065182825,5865,1.795716375
2023-11-30 18:12:06.476,80701,202879,162537,6138,1.87930215,5730,1.75438275
2023-11-30 18:12:06.476,80702,202474,162380,14065,4.306351375,5882,1.80092135
2023-11-30 18:12:06.476,80703,202148,162283,511,0.156455425,5862,1.79479785
2023-11-30 18:12:06.476,80704,201878,162183,86,0.02633105,5656,1.7317258
2023-11-30 18:12:06.476,80705,201676,162120,14200,4.347685,5751,1.760812425
2023-11-30 18:12:06.507,80706,201488,162072,6476,1.9827893,5851,1.791429925
2023-11-30 18:12:06.507,80707,201336,162018,-3625,-1.109884375,5647,1.728970225
2023-11-30 18:12:06.507,80708,201212,161983,11393,3.488251775,5630,1.72376525
2023-11-30 18:12:06.507,80709,201083,161949,12036,3.6851223,5804,1.7770397
2023-11-30 18:12:06.507,80710,201013,161922,-2906,-0.88974455,5692,1.7427481
2023-11-30 18:12:06.507,80711,200984,161930,6113,1.871647775,5565,1.703863875
2023-11-30 18:12:06.507,80712,200934,161919,14990,4.58956325,5733,1.755301275
2023-11-30 18:12:06.538,80713,200944,161936,1624,0.4972282,5738,1.75683215
2023-11-30 18:12:06.538,80714,200951,161946,357,0.109304475,5537,1.695290975
2023-11-30 18:12:06.538,80715,200988,161967,14860,4.5497605,5627,1.722846725
2023-11-30 18:12:06.538,80716,201025,161987,7695,2.356016625,5740,1.7574445
2023-11-30 18:12:06.538,80717,201095,162012,-3097,-0.948223975,5554,1.70049595
2023-11-30 18:12:06.538,80718,201166,162055,11692,3.5797981,5543,1.697128025
2023-11-30 18:12:06.538,80719,201268,162093,12891,3.946901925,5732,1.7549951
2023-11-30 18:12:06.538,80720,201390,162133,-2355,-0.721042125,5637,1.725908475
2023-11-30 18:12:06.538,80721,201484,162171,6089,1.864299575,5512,1.6876366
2023-11-30 18:12:06.565,80722,201579,162211,15214,4.65814645,5692,1.7427481
2023-11-30 18:12:06.565,80723,201665,162221,2355,0.721042125,5722,1.75193335
2023-11-30 18:12:06.565,80724,201717,162242,118,0.03612865,5540,1.6962095
2023-11-30 18:12:06.565,80725,201750,162256,14709,4.503528075,5661,1.733256675
2023-11-30 18:12:06.565,80726,201778,162253,8247,2.525025225,5834,1.78622495
2023-11-30 18:12:06.565,80727,201792,162274,-3269,-1.000886075,5707,1.747340725
2023-11-30 18:12:06.565,80728,201820,162275,11092,3.3960931,5738,1.75683215
2023-11-30 18:12:06.599,80729,201818,162280,13021,3.986704675,5981,1.831232675
2023-11-30 18:12:06.599,80730,201803,162265,-2160,-0.661338,5948,1.8211289
2023-11-30 18:12:06.599,80731,201780,162265,5413,1.657325275,5874,1.79847195
2023-11-30 18:12:06.599,80732,201786,162268,15063,4.611914025,6112,1.8713416
2023-11-30 18:12:06.599,80733,201786,162255,2730,0.83585775,6216,1.9031838
2023-11-30 18:12:06.599,80734,201772,162254,-380,-0.1163465,6094,1.86583045
2023-11-30 18:12:06.630,80735,201810,162269,14456,4.4260658,6259,1.916349325
2023-11-30 18:12:06.630,80736,201831,162270,8510,2.60554925,6468,1.9803399
2023-11-30 18:12:06.630,80737,201852,162296,-3222,-0.98649585,6349,1.943905075
2023-11-30 18:12:06.630,80738,201888,162313,10798,3.30607765,6363,1.948191525
2023-11-30 18:12:06.630,80739,201938,162331,13170,4.03232475,6592,2.0183056
2023-11-30 18:12:06.630,80740,201983,162356,-1992,-0.6099006,6542,2.00299685
2023-11-30 18:12:06.630,80741,202022,162377,4787,1.465659725,6424,1.9668682
2023-11-30 18:12:06.630,80742,202100,162396,15113,4.627222775,6608,2.0232044
2023-11-30 18:12:06.662,80743,202123,162416,2969,0.909033575,6660,2.0391255
2023-11-30 18:12:06.662,80744,202176,162438,-865,-0.264841375,6465,1.979421375
2023-11-30 18:12:06.662,80745,202191,162444,14209,4.350440575,6543,2.003303025
2023-11-30 18:12:06.662,80746,202190,162446,8895,2.723426625,6682,2.04586135
2023-11-30 18:12:06.662,80747,202161,162436,-3625,-1.109884375,6502,1.99074985
2023-11-30 18:12:06.662,80748,202141,162439,10393,3.182076775,6447,1.973910225
2023-11-30 18:12:06.693,80749,202111,162428,13290,4.06906575,6621,2.027184675
2023-11-30 18:12:06.693,80750,202066,162405,-1858,-0.56887315,6533,2.000241275
2023-11-30 18:12:06.693,80751,202025,162397,4324,1.3239007,6369,1.950028575
2023-11-30 18:12:06.693,80752,201976,162377,15221,4.660289675,6519,1.995954825
2023-11-30 18:12:06.693,80753,201954,162359,3363,1.029666525,6561,2.008814175
2023-11-30 18:12:06.724,80754,201920,162351,-1302,-0.39863985,6357,1.946354475
2023-11-30 18:12:06.724,80755,201920,162334,13863,4.244504025,6427,1.967786725
2023-11-30 18:12:06.724,80756,201905,162329,9221,2.823239675,6578,2.01401915
2023-11-30 18:12:06.724,80757,201877,162335,-3666,-1.12243755,6409,1.962275575
2023-11-30 18:12:06.724,80758,201870,162327,9750,2.98520625,6349,1.943905075
2023-11-30 18:12:06.724,80759,201883,162327,13336,4.0831498,6532,1.9999351
2023-11-30 18:12:06.724,80760,201885,162329,-1671,-0.511618425,6462,1.97850285
2023-11-30 18:12:06.755,80761,201906,162332,3750,1.14815625,6295,1.927371625
2023-11-30 18:12:06.755,80762,201904,162357,14908,4.5644569,6440,1.971767
2023-11-30 18:12:06.755,80763,201911,162332,3541,1.084165675,6490,1.98707575
2023-11-30 18:12:06.755,80764,201929,162345,-1549,-0.474265075,6280,1.922779
2023-11-30 18:12:06.755,80765,201969,162374,13649,4.178982575,6333,1.939006275
2023-11-30 18:12:06.755,80766,202010,162381,9409,2.880800575,6479,1.983707825
2023-11-30 18:12:06.786,80767,202082,162396,-3716,-1.1377463,6306,1.93073955
2023-11-30 18:12:06.786,80768,202131,162435,9262,2.83579285,6234,1.90869495
2023-11-30 18:12:06.786,80769,202212,162464,13598,4.16336765,6418,1.96503115
2023-11-30 18:12:06.787,80770,202324,162489,-1258,-0.38516815,6360,1.947273
2023-11-30 18:12:06.787,80771,202427,162548,3227,0.988026725,6193,1.896141775
2023-11-30 18:12:06.817,80772,202528,162580,14756,4.5179183,6342,1.94176185
2023-11-30 18:12:06.817,80773,202637,162611,4013,1.228680275,6407,1.961663225
2023-11-30 18:12:06.817,80774,202727,162647,-1965,-0.601633875,6201,1.898591175
2023-11-30 18:12:06.817,80775,202842,162699,12991,3.977519425,6246,1.91236905
2023-11-30 18:12:06.817,80776,202952,162749,9351,2.863042425,6391,1.956764425
2023-11-30 18:12:06.817,80777,203052,162772,-3826,-1.17142555,6218,1.90379615
2023-11-30 18:12:06.848,80778,203155,162809,8650,2.64841375,6134,1.87807745
2023-11-30 18:12:06.848,80779,203278,162838,13398,4.10213265,6310,1.93196425
2023-11-30 18:12:06.848,80780,203373,162862,-1155,-0.353632125,6247,1.912675225
2023-11-30 18:12:06.848,80781,203442,162906,2510,0.76849925,6065,1.856951375
2023-11-30 18:12:06.848,80782,203550,162932,14512,4.4432116,6201,1.898591175
2023-11-30 18:12:06.848,80783,203633,162967,4376,1.3398218,6269,1.919411075
2023-11-30 18:12:06.879,80784,203720,162971,-2374,-0.72685945,6061,1.855726675
2023-11-30 18:12:06.879,80785,203798,163013,12794,3.91720295,6098,1.86705515
2023-11-30 18:12:06.879,80786,203890,163037,10089,3.088999575,6260,1.9166555
2023-11-30 18:12:06.879,80787,203984,163068,-3634,-1.11263995,6115,1.872260125
2023-11-30 18:12:06.911,80788,204036,163099,8188,2.5069609,6037,1.848378475
2023-11-30 18:12:06.911,80789,204147,163126,13757,4.212049475,6220,1.9044085
2023-11-30 18:12:06.911,80790,204228,163161,-673,-0.206055775,6178,1.89154915
2023-11-30 18:12:06.911,80791,204321,163186,2127,0.651234225,6002,1.83766235
2023-11-30 18:12:06.911,80792,204396,163214,14536,4.4505598,6129,1.876546575
2023-11-30 18:12:06.911,80793,204465,163244,4881,1.494440175,6189,1.894917075
2023-11-30 18:12:06.942,80794,204539,163256,-2736,-0.8376948,5965,1.826333875
2023-11-30 18:12:06.942,80795,204604,163273,12483,3.821982525,5976,1.8297018
2023-11-30 18:12:06.942,80796,204645,163286,10420,3.1903435,6118,1.87317865
2023-11-30 18:12:06.942,80797,204645,163283,-3507,-1.073755725,5951,1.822047425
2023-11-30 18:12:06.942,80798,204666,163301,7582,2.32141885,5838,1.78744965
2023-11-30 18:12:06.942,80799,204650,163276,13575,4.156325625,6000,1.83705
2023-11-30 18:12:06.973,80800,204681,163281,-795,-0.243409125,5958,1.82419065
2023-11-30 18:12:06.973,80801,204686,163292,876,0.2682093,5769,1.766323575
2023-11-30 18:12:06.973,80802,204698,163285,13189,4.038142075,5890,1.80337075
2023-11-30 18:12:06.973,80803,204707,163293,3723,1.139889525,5981,1.831232675
2023-11-30 18:12:06.973,80804,204724,163277,-4318,-1.32206365,5797,1.774896475
2023-11-30 18:12:06.973,80805,204702,163266,11219,3.434977325,5838,1.78744965
2023-11-30 18:12:06.973,80806,204703,163281,10555,3.231677125,6025,1.844704375
2023-11-30 18:12:06.999,80807,204712,163270,-2766,-0.84688005,5910,1.80949425
2023-11-30 18:12:06.999,80808,204707,163261,8217,2.515839975,5828,1.7843879
2023-11-30 18:12:06.999,80809,204719,163271,14605,4.471685875,6020,1.8431735
2023-11-30 18:12:06.999,80810,204726,163270,388,0.1187959,6008,1.8394994
2023-11-30 18:12:06.999,80811,204765,163265,1410,0.43170675,5829,1.784694075
2023-11-30 18:12:06.999,80812,204758,163275,14503,4.440456025,5953,1.822659775
2023-11-30 18:12:06.999,80813,204780,163300,5887,1.802452225,6056,1.8541958
2023-11-30 18:12:07.035,80814,204828,163301,-2856,-0.8744358,5868,1.7966349
2023-11-30 18:12:07.035,80815,204839,163315,11942,3.65634185,5881,1.800615175
2023-11-30 18:12:07.035,80816,204851,163304,10982,3.36241385,6041,1.849603175
2023-11-30 18:12:07.035,80817,204864,163311,-3281,-1.004560175,5887,1.802452225
2023-11-30 18:12:07.035,80818,204872,163310,6851,2.097604925,5732,1.7549951
2023-11-30 18:12:07.035,80819,204877,163302,14028,4.2950229,5833,1.785918775
2023-11-30 18:12:07.066,80820,204867,163299,481,0.147270175,5718,1.75070865
2023-11-30 18:12:07.066,80821,204890,163295,822,0.25167585,5411,1.656712925
2023-11-30 18:12:07.066,80822,204910,163313,14027,4.294716725,5413,1.657325275
2023-11-30 18:12:07.066,80823,204950,163311,6135,1.878383625,5441,1.665898175
2023-11-30 18:12:07.066,80824,204990,163342,-3106,-0.95097955,5224,1.5994582
2023-11-30 18:12:07.066,80825,205036,163367,11404,3.4916197,5254,1.60864345
2023-11-30 18:12:07.066,80826,205115,163372,11146,3.41262655,5491,1.681206925
2023-11-30 18:12:07.096,80827,205192,163421,-3241,-0.992313175,5456,1.6704908
2023-11-30 18:12:07.096,80828,205274,163455,6246,1.91236905,5432,1.6631426
2023-11-30 18:12:07.096,80829,205365,163481,14008,4.2888994,5700,1.7451975
2023-11-30 18:12:07.096,80830,205472,163523,585,0.179112375,5801,1.776121175
2023-11-30 18:12:07.096,80831,205588,163566,254,0.07776845,5724,1.7525457
2023-11-30 18:12:07.096,80832,205711,163602,13967,4.276346225,5950,1.82174125
2023-11-30 18:12:07.127,80833,205816,163643,6508,1.9925869,6179,1.891855325
2023-11-30 18:12:07.127,80834,205929,163694,-3348,-1.0250739,6085,1.863074875
2023-11-30 18:12:07.127,80835,206082,163738,11045,3.381702875,6128,1.8762404
2023-11-30 18:12:07.127,80836,206188,163766,11301,3.460083675,6298,1.92829015
2023-11-30 18:12:07.127,80837,206298,163811,-3299,-1.010071325,6136,1.8786898
2023-11-30 18:12:07.158,80838,206373,163841,5664,1.7341752,5938,1.81806715
2023-11-30 18:12:07.158,80839,206474,163867,13843,4.238380525,6030,1.84623525
2023-11-30 18:12:07.158,80840,206524,163875,1007,0.308318225,5983,1.831845025
2023-11-30 18:12:07.158,80841,206532,163882,-154,-0.04715095,5773,1.767548275
2023-11-30 18:12:07.158,80842,206486,163848,13587,4.159999725,5879,1.800002825
2023-11-30 18:12:07.158,80843,206393,163799,6646,2.03483905,6009,1.839805575
2023-11-30 18:12:07.158,80844,206177,163710,-3780,-1.1573415,5826,1.78377555
2023-11-30 18:12:07.189,80845,205826,163574,10336,3.1646248,5795,1.774284125
2023-11-30 18:12:07.189,80846,205388,163374,11280,3.453654,5944,1.8199042
2023-11-30 18:12:07.189,80847,204805,163170,-3107,-0.951285725,5814,1.78010145
2023-11-30 18:12:07.189,80848,204286,162979,5115,1.566085125,5670,1.73601225
2023-11-30 18:12:07.189,80849,203798,162815,13886,4.25154605,5838,1.78744965
2023-11-30 18:12:07.189,80850,203409,162699,1225,0.375064375,5866,1.79602255
2023-11-30 18:12:07.216,80851,203016,162555,-750,-0.22963125,5677,1.738155475
2023-11-30 18:12:07.216,80852,202626,162431,13408,4.1051944,5760,1.763568
2023-11-30 18:12:07.216,80853,202287,162307,6992,2.1407756,5867,1.796328725
2023-11-30 18:12:07.216,80854,201995,162221,-4081,-1.249500175,5674,1.73723695
2023-11-30 18:12:07.216,80855,201730,162139,10115,3.096960125,5643,1.727745525
2023-11-30 18:12:07.216,80856,201516,162076,11697,3.581328975,5816,1.7807138
2023-11-30 18:12:07.216,80857,201303,162002,-3124,-0.9564907,5716,1.7500963
2023-11-30 18:12:07.216,80858,201153,161962,4525,1.385441875,5572,1.7060071
2023-11-30 18:12:07.261,80859,201016,161920,14205,4.349215875,5722,1.75193335
2023-11-30 18:12:07.261,80860,200878,161887,1687,0.516517225,5734,1.75560745
2023-11-30 18:12:07.261,80861,200803,161855,-1113,-0.340772775,5523,1.691004525
2023-11-30 18:12:07.261,80862,200690,161839,13981,4.280632675,5587,1.710599725
2023-11-30 18:12:07.261,80863,200626,161815,8005,2.450930875,5694,1.74336045
2023-11-30 18:12:07.261,80864,200605,161811,-3634,-1.11263995,5499,1.683656325
2023-11-30 18:12:07.261,80865,200555,161793,10515,3.219430125,5450,1.66865375
2023-11-30 18:12:07.292,80866,200554,161793,12861,3.937716675,5617,1.719784975
2023-11-30 18:12:07.292,80867,200558,161801,-2255,-0.690424625,5522,1.69069835
2023-11-30 18:12:07.292,80868,200568,161815,4739,1.450963325,5373,1.645078275
2023-11-30 18:12:07.292,80869,200621,161815,15115,4.627835125,5528,1.6925354
2023-11-30 18:12:07.292,80870,200650,161827,2992,0.9160756,5561,1.702639175
2023-11-30 18:12:07.313,80871,200701,161845,-714,-0.21860895,5359,1.640791825
2023-11-30 18:12:07.313,80872,200769,161879,14242,4.36054435,5428,1.6619179
2023-11-30 18:12:07.313,80873,200844,161908,8835,2.705056125,5561,1.702639175
2023-11-30 18:12:07.313,80874,200914,161930,-3482,-1.06610135,5390,1.65028325
2023-11-30 18:12:07.313,80875,200977,161945,10334,3.16401245,5350,1.63803625
2023-11-30 18:12:07.313,80876,201042,161971,13144,4.0243642,5541,1.696515675
2023-11-30 18:12:07.313,80877,201116,161981,-1589,-0.486512075,5476,1.6766143
2023-11-30 18:12:07.343,80878,201161,162009,4619,1.414222325,5340,1.6349745
2023-11-30 18:12:07.343,80879,201209,162029,15004,4.5938497,5523,1.691004525
2023-11-30 18:12:07.343,80880,201276,162046,3324,1.0177257,5607,1.716723225
2023-11-30 18:12:07.343,80881,201328,162068,-1011,-0.309542925,5458,1.67110315
2023-11-30 18:12:07.343,80882,201363,162077,13882,4.25032135,5588,1.7109059
