Time, Sample Count, IR Count, Red Count, Raw ECG, Raw ECG (mV), Filtered ECG, Filtered ECG (mV)
2023-11-30 18:05:52.974,62998,203785,159810,-9975,-3.054095625,-5921,-1.812862175
2023-11-30 18:05:52.997,62999,203860,159820,-5625,-1.722234375,-6751,-2.066987425
2023-11-30 18:05:53.036,63000,203903,159852,-529,-0.161966575,-5636,-1.7256023
2023-11-30 18:05:53.036,63001,203966,159874,-8204,-2.5118597,-5656,-1.7317258
2023-11-30 18:05:53.036,63002,204002,159880,-8315,-2.545845125,-6854,-2.09852345
2023-11-30 18:05:53.036,63003,204035,159910,-117,-0.035822475,-6222,-1.90502085
2023-11-30 18:05:53.066,63004,204063,159898,-5447,-1.667735225,-5403,-1.654263525
2023-11-30 18:05:53.066,63005,204067,159916,-9739,-2.981838325,-6327,-1.937169225
2023-11-30 18:05:53.066,63006,204116,159928,-2092,-0.6405181,-6285,-1.924309875
2023-11-30 18:05:53.066,63007,204120,159914,-2541,-0.777990675,-4968,-1.5210774
2023-11-30 18:05:53.066,63008,204138,159926,-9400,-2.878045,-5465,-1.673246375
2023-11-30 18:05:53.097,63009,204140,159919,-5760,-1.763568,-6290,-1.92584075
2023-11-30 18:05:53.097,63010,204165,159935,-301,-0.092158675,-5230,-1.60129525
2023-11-30 18:05:53.097,63011,204161,159920,-7856,-2.4053108,-5059,-1.548939325
2023-11-30 18:05:53.097,63012,204177,159924,-8702,-2.66433485,-6124,-1.8750157
2023-11-30 18:05:53.097,63013,204194,159946,-608,-0.1861544,-5536,-1.6949848
2023-11-30 18:05:53.097,63014,204246,159947,-4997,-1.529956475,-4798,-1.46902765
2023-11-30 18:05:53.097,63015,204264,159960,-9937,-3.042460975,-5840,-1.788062
2023-11-30 18:05:53.097,63016,204312,159978,-2833,-0.867393775,-5965,-1.826333875
2023-11-30 18:05:53.127,63017,204389,159994,-1971,-0.603470925,-4824,-1.4769882
2023-11-30 18:05:53.127,63018,204447,160029,-9271,-2.838548425,-5366,-1.64293505
2023-11-30 18:05:53.127,63019,204531,160051,-5716,-1.7500963,-6047,-1.851440225
2023-11-30 18:05:53.127,63020,204579,160068,-189,-0.057867075,-4849,-1.484642575
2023-11-30 18:05:53.127,63021,204620,160080,-7674,-2.34958695,-4690,-1.43596075
2023-11-30 18:05:53.127,63022,204684,160111,-8596,-2.6318803,-5775,-1.768160625
2023-11-30 18:05:53.127,63023,204735,160118,-172,-0.0526621,-5195,-1.590579125
2023-11-30 18:05:53.127,63024,204750,160132,-4730,-1.44820775,-4474,-1.36982695
2023-11-30 18:05:53.159,63025,204779,160126,-9733,-2.980001275,-5521,-1.690392175
2023-11-30 18:05:53.159,63026,204802,160136,-2468,-0.7556399,-5707,-1.747340725
2023-11-30 18:05:53.159,63027,204791,160137,-1479,-0.452832825,-4563,-1.397076525
2023-11-30 18:05:53.159,63028,204818,160127,-9140,-2.7984395,-5095,-1.559961625
2023-11-30 18:05:53.159,63029,204773,160113,-6082,-1.86215635,-6001,-1.837356175
2023-11-30 18:05:53.159,63030,204761,160108,26,0.00796055,-5025,-1.538529375
2023-11-30 18:05:53.189,63031,204745,160118,-7149,-2.188845075,-4828,-1.4782129
2023-11-30 18:05:53.189,63032,204728,160091,-8627,-2.641371725,-5942,-1.81929185
2023-11-30 18:05:53.189,63033,204710,160104,-709,-0.217078075,-5440,-1.665592
2023-11-30 18:05:53.189,63034,204694,160080,-4544,-1.3912592,-4540,-1.3900345
2023-11-30 18:05:53.189,63035,204692,160083,-9551,-2.924277425,-5417,-1.658549975
2023-11-30 18:05:53.189,63036,204674,160073,-2916,-0.8928063,-5600,-1.71458
2023-11-30 18:05:53.189,63037,204676,160068,-1659,-0.507944325,-4465,-1.367071375
2023-11-30 18:05:53.189,63038,204652,160082,-8932,-2.7347551,-4979,-1.524445325
2023-11-30 18:05:53.189,63039,204650,160070,-6050,-1.85235875,-5830,-1.78500025
2023-11-30 18:05:53.220,63040,204665,160074,435,0.133186125,-4762,-1.45800535
2023-11-30 18:05:53.220,63041,204684,160066,-6860,-2.1003605,-4532,-1.3875851
2023-11-30 18:05:53.220,63042,204693,160098,-8558,-2.62024565,-5676,-1.7378493
2023-11-30 18:05:53.220,63043,204714,160093,-228,-0.0698079,-5155,-1.578332125
2023-11-30 18:05:53.220,63044,204744,160092,-3848,-1.1781614,-4197,-1.285016475
2023-11-30 18:05:53.220,63045,204771,160102,-9743,-2.983063025,-5137,-1.572820975
2023-11-30 18:05:53.220,63046,204808,160121,-3312,-1.0140516,-5482,-1.67845135
2023-11-30 18:05:53.220,63047,204863,160141,-1537,-0.470590975,-4358,-1.33431065
2023-11-30 18:05:53.251,63048,204915,160144,-9011,-2.758942925,-4785,-1.465047375
2023-11-30 18:05:53.251,63049,204957,160165,-6779,-2.075560325,-5743,-1.758363025
2023-11-30 18:05:53.251,63050,205051,160197,-303,-0.092771025,-4873,-1.491990775
2023-11-30 18:05:53.251,63051,205094,160214,-6961,-2.131284175,-4611,-1.411772925
2023-11-30 18:05:53.251,63052,205170,160237,-8871,-2.716078425,-5654,-1.73111345
2023-11-30 18:05:53.251,63053,205266,160258,-1048,-0.3208714,-5213,-1.596090275
2023-11-30 18:05:53.280,63054,205318,160288,-3641,-1.114783175,-4329,-1.325431575
2023-11-30 18:05:53.280,63055,205405,160321,-9483,-2.903457525,-5230,-1.60129525
2023-11-30 18:05:53.280,63056,205475,160352,-3780,-1.1573415,-5502,-1.68457485
2023-11-30 18:05:53.280,63057,205545,160371,-954,-0.29209095,-4246,-1.30001905
2023-11-30 18:05:53.280,63058,205646,160406,-8707,-2.665865725,-4563,-1.397076525
2023-11-30 18:05:53.280,63059,205711,160435,-6901,-2.112913675,-5478,-1.67722665
2023-11-30 18:05:53.280,63060,205792,160453,-175,-0.053580625,-4494,-1.37595045
2023-11-30 18:05:53.311,63061,205859,160475,-6623,-2.027797025,-4154,-1.27185095
2023-11-30 18:05:53.311,63062,205916,160497,-8956,-2.7421033,-5390,-1.65028325
2023-11-30 18:05:53.311,63063,206003,160510,-901,-0.275863675,-5205,-1.593640875
2023-11-30 18:05:53.311,63064,206042,160543,-3804,-1.1646897,-4375,-1.339515625
2023-11-30 18:05:53.311,63065,206105,160559,-9419,-2.883862325,-5321,-1.629157175
2023-11-30 18:05:53.311,63066,206169,160567,-3377,-1.033952975,-5818,-1.78132615
2023-11-30 18:05:53.311,63067,206225,160592,-1236,-0.3784323,-4751,-1.454637425
2023-11-30 18:05:53.342,63068,206259,160606,-8806,-2.69617705,-5032,-1.5406726
2023-11-30 18:05:53.342,63069,206310,160621,-7178,-2.19772415,-5922,-1.81316835
2023-11-30 18:05:53.342,63070,206358,160629,-179,-0.054805325,-4978,-1.52413915
2023-11-30 18:05:53.342,63071,206403,160655,-7375,-2.258040625,-4454,-1.36370345
2023-11-30 18:05:53.342,63072,206443,160658,-9828,-3.0090879,-5491,-1.681206925
2023-11-30 18:05:53.342,63073,206469,160674,-1329,-0.406906575,-5260,-1.6104805
2023-11-30 18:05:53.372,63074,206504,160678,-3199,-0.979453825,-4272,-1.3079796
2023-11-30 18:05:53.372,63075,206547,160683,-8728,-2.6722954,-5088,-1.5578184
2023-11-30 18:05:53.372,63076,206566,160692,-3399,-1.040688825,-5633,-1.724683775
2023-11-30 18:05:53.372,63077,206588,160700,-465,-0.142371375,-4584,-1.4035062
2023-11-30 18:05:53.372,63078,206620,160715,-7811,-2.391532925,-4847,-1.484030225
2023-11-30 18:05:53.372,63079,206629,160717,-6803,-2.082908525,-5790,-1.77275325
2023-11-30 18:05:53.372,63080,206667,160711,146,0.04470155,-4915,-1.504850125
2023-11-30 18:05:53.403,63081,206661,160724,-5674,-1.73723695,-4462,-1.36615285
2023-11-30 18:05:53.403,63082,206675,160727,-8651,-2.648719925,-5471,-1.675083425
2023-11-30 18:05:53.403,63083,206689,160746,-1007,-0.308318225,-5160,-1.579863
2023-11-30 18:05:53.403,63084,206721,160739,-3090,-0.94608075,-4223,-1.292977025
2023-11-30 18:05:53.403,63085,206743,160743,-9072,-2.7776196,-5148,-1.5761889
2023-11-30 18:05:53.403,63086,206758,160746,-3662,-1.12121285,-5747,-1.759587725
2023-11-30 18:05:53.434,63087,206788,160755,-603,-0.184623525,-4744,-1.4524942
2023-11-30 18:05:53.434,63088,206808,160777,-8127,-2.488284225,-5193,-1.589966775
2023-11-30 18:05:53.434,63089,206841,160776,-6832,-2.0917876,-6360,-1.947273
2023-11-30 18:05:53.434,63090,206864,160788,612,0.1873791,-5455,-1.670184625
2023-11-30 18:05:53.434,63091,206869,160795,-5513,-1.687942775,-4656,-1.4255508
2023-11-30 18:05:53.434,63092,206901,160806,-8955,-2.741797125,-5363,-1.642016525
2023-11-30 18:05:53.434,63093,206922,160799,-1024,-0.3135232,-4945,-1.514035375
2023-11-30 18:05:53.434,63094,206956,160822,-2583,-0.790850025,-3775,-1.155810625
2023-11-30 18:05:53.465,63095,206994,160832,-9214,-2.82109645,-4396,-1.3459453
2023-11-30 18:05:53.465,63096,207022,160835,-4290,-1.31349075,-4970,-1.52168975
2023-11-30 18:05:53.465,63097,207080,160853,-539,-0.165028325,-4018,-1.23021115
2023-11-30 18:05:53.465,63098,207110,160879,-7718,-2.36305865,-4296,-1.3153278
2023-11-30 18:05:53.465,63099,207176,160901,-7153,-2.190069775,-5398,-1.65273265
2023-11-30 18:05:53.465,63100,207217,160901,-120,-0.036741,-4700,-1.4390225
2023-11-30 18:05:53.465,63101,207274,160920,-5705,-1.746728375,-4151,-1.270932425
2023-11-30 18:05:53.515,63102,207332,160932,-8977,-2.748532975,-5083,-1.556287525
2023-11-30 18:05:53.515,63103,207384,160958,-1420,-0.4347685,-4860,-1.4880105
2023-11-30 18:05:53.515,63104,207442,160997,-2448,-0.7495164,-3900,-1.1940825
2023-11-30 18:05:53.515,63105,207497,160996,-8977,-2.748532975,-4758,-1.45678065
2023-11-30 18:05:53.515,63106,207534,161021,-4176,-1.2785868,-5375,-1.645690625
2023-11-30 18:05:53.515,63107,207580,161029,45,0.013777875,-4182,-1.28042385
2023-11-30 18:05:53.556,63108,207623,161040,-7785,-2.383572375,-4208,-1.2883844
2023-11-30 18:05:53.556,63109,207632,161034,-7569,-2.317438575,-5227,-1.600376725
2023-11-30 18:05:53.556,63110,207594,161034,198,0.06062265,-4479,-1.371357825
2023-11-30 18:05:53.556,63111,207536,160981,-5484,-1.6790637,-3903,-1.195001025
2023-11-30 18:05:53.556,63112,207424,160920,-9465,-2.897946375,-5057,-1.548326975
2023-11-30 18:05:53.556,63113,207152,160849,-2010,-0.61541175,-5142,-1.57435185
2023-11-30 18:05:53.556,63114,206846,160734,-2887,-0.883927225,-4157,-1.272769475
2023-11-30 18:05:53.586,63115,206467,160606,-9487,-2.904682225,-4773,-1.461373275
2023-11-30 18:05:53.586,63116,206043,160451,-5392,-1.6508956,-5373,-1.645078275
2023-11-30 18:05:53.586,63117,205702,160344,-521,-0.159517175,-4367,-1.337066225
2023-11-30 18:05:53.586,63118,205414,160246,-7872,-2.4102096,-4472,-1.3692146
2023-11-30 18:05:53.586,63119,205137,160138,-8170,-2.50144975,-5497,-1.683043975
2023-11-30 18:05:53.586,63120,204842,160058,-406,-0.12430705,-4780,-1.4635165
2023-11-30 18:05:53.617,63121,204523,159963,-5178,-1.58537415,-4112,-1.2589916
2023-11-30 18:05:53.617,63122,204326,159880,-9607,-2.941423225,-5089,-1.558124575
2023-11-30 18:05:53.617,63123,204106,159834,-2530,-0.77462275,-4997,-1.529956475
2023-11-30 18:05:53.617,63124,203930,159773,-2479,-0.759007825,-3843,-1.176630525
2023-11-30 18:05:53.617,63125,203774,159737,-9372,-2.8694721,-4509,-1.380543075
2023-11-30 18:05:53.617,63126,203640,159688,-5314,-1.62701395,-5287,-1.618747225
2023-11-30 18:05:53.617,63127,203538,159673,-502,-0.15369985,-4300,-1.3165525
2023-11-30 18:05:53.617,63128,203452,159648,-7758,-2.37530565,-4421,-1.353599675
2023-11-30 18:05:53.617,63129,203400,159624,-7860,-2.4065355,-5650,-1.72988875
2023-11-30 18:05:53.647,63130,203356,159617,-87,-0.026637225,-5142,-1.57435185
2023-11-30 18:05:53.647,63131,203344,159618,-4917,-1.505462475,-4524,-1.3851357
2023-11-30 18:05:53.647,63132,203315,159624,-8859,-2.712404325,-5562,-1.70294535
2023-11-30 18:05:53.647,63133,203316,159609,-1503,-0.460181025,-5665,-1.734481375
2023-11-30 18:05:53.647,63134,203351,159629,-1879,-0.575302825,-4574,-1.40044445
2023-11-30 18:05:53.647,63135,203372,159639,-8442,-2.58472935,-5140,-1.5737395
2023-11-30 18:05:53.647,63136,203384,159643,-4939,-1.512198325,-5907,-1.808575725
2023-11-30 18:05:53.678,63137,203438,159671,-61,-0.018676675,-4844,-1.4831117
2023-11-30 18:05:53.678,63138,203489,159688,-6849,-2.096992575,-4666,-1.42861255
2023-11-30 18:05:53.678,63139,203551,159700,-7514,-2.30059895,-5719,-1.751014825
2023-11-30 18:05:53.678,63140,203607,159736,181,0.055417675,-5218,-1.59762115
2023-11-30 18:05:53.678,63141,203645,159761,-4245,-1.299712875,-4531,-1.387278925
2023-11-30 18:05:53.708,63142,203713,159774,-8977,-2.748532975,-5520,-1.690086
2023-11-30 18:05:53.708,63143,203770,159786,-2437,-0.746148475,-5641,-1.727133175
2023-11-30 18:05:53.708,63144,203821,159805,-1504,-0.4604872,-4537,-1.389115975
2023-11-30 18:05:53.708,63145,203839,159823,-8412,-2.5755441,-5018,-1.53638615
2023-11-30 18:05:53.708,63146,203883,159848,-5477,-1.676920475,-5660,-1.7329505
2023-11-30 18:05:53.708,63147,203909,159868,-140,-0.0428645,-4544,-1.3912592
2023-11-30 18:05:53.708,63148,203954,159854,-6822,-2.08872585,-4368,-1.3373724
2023-11-30 18:05:53.708,63149,203960,159866,-7706,-2.35938455,-5308,-1.6251769
2023-11-30 18:05:53.739,63150,203973,159883,-17,-0.005204975,-4622,-1.41514085
2023-11-30 18:05:53.739,63151,203998,159890,-4330,-1.32573775,-3805,-1.164995875
2023-11-30 18:05:53.739,63152,204027,159922,-8868,-2.7151599,-4703,-1.439941025
2023-11-30 18:05:53.739,63153,204067,159921,-1959,-0.599796825,-4865,-1.489541375
2023-11-30 18:05:53.739,63154,204106,159945,-1279,-0.391597825,-3842,-1.17632435
2023-11-30 18:05:53.739,63155,204128,159964,-8445,-2.585647875,-4357,-1.334004475
2023-11-30 18:05:53.770,63156,204177,159978,-5119,-1.567309825,-5147,-1.575882725
2023-11-30 18:05:53.770,63157,204230,159994,657,0.201156975,-4168,-1.2761374
2023-11-30 18:05:53.770,63158,204301,160028,-6475,-1.982483125,-3984,-1.2198012
2023-11-30 18:05:53.770,63159,204365,160045,-7938,-2.43041715,-5079,-1.555062825
2023-11-30 18:05:53.770,63160,204438,160067,-34,-0.01040995,-4662,-1.42738785
2023-11-30 18:05:53.770,63161,204500,160085,-3813,-1.167445275,-3859,-1.181529325
2023-11-30 18:05:53.770,63162,204559,160112,-8972,-2.7470021,-4779,-1.463210325
2023-11-30 18:05:53.770,63163,204604,160104,-2688,-0.8229984,-5138,-1.57312715
2023-11-30 18:05:53.801,63164,204625,160122,-1482,-0.45375135,-4170,-1.27674975
2023-11-30 18:05:53.801,63165,204657,160110,-8225,-2.518289375,-4568,-1.3986074
2023-11-30 18:05:53.801,63166,204653,160107,-5622,-1.72131585,-5248,-1.6068064
2023-11-30 18:05:53.801,63167,204654,160099,238,0.07286965,-4220,-1.2920585
2023-11-30 18:05:53.801,63168,204624,160101,-6378,-1.95278415,-4024,-1.2320482
2023-11-30 18:05:53.801,63169,204624,160105,-7945,-2.432560375,-5082,-1.55598135
2023-11-30 18:05:53.801,63170,204604,160109,7,0.002143225,-4574,-1.40044445
2023-11-30 18:05:53.831,63171,204576,160086,-3420,-1.0471185,-3728,-1.1414204
2023-11-30 18:05:53.831,63172,204552,160079,-8904,-2.7261822,-4638,-1.42003965
2023-11-30 18:05:53.831,63173,204523,160071,-2373,-0.726553275,-4845,-1.483417875
2023-11-30 18:05:53.831,63174,204508,160063,-982,-0.30066385,-3660,-1.1206005
2023-11-30 18:05:53.831,63175,204524,160057,-8267,-2.531148725,-4075,-1.247663125
2023-11-30 18:05:53.862,63176,204493,160038,-5680,-1.739074,-5017,-1.536079975
2023-11-30 18:05:53.862,63177,204473,160043,281,0.086035175,-4138,-1.26695215
2023-11-30 18:05:53.862,63178,204448,160038,-6532,-1.9999351,-3887,-1.190102225
2023-11-30 18:05:53.862,63179,204478,160025,-8270,-2.53206725,-5015,-1.535467625
2023-11-30 18:05:53.892,63180,204459,160050,-665,-0.203606375,-4747,-1.453412725
2023-11-30 18:05:53.892,63181,204473,160035,-3740,-1.1450945,-3969,-1.215208575
2023-11-30 18:05:53.892,63182,204495,160031,-9020,-2.7616985,-4808,-1.4720894
2023-11-30 18:05:53.892,63183,204503,160054,-3209,-0.982515575,-5091,-1.558736925
2023-11-30 18:05:53.892,63184,204534,160044,-697,-0.213403975,-3987,-1.220719725
2023-11-30 18:05:53.892,63185,204548,160054,-8044,-2.4628717,-4308,-1.3190019
2023-11-30 18:05:53.923,63186,204583,160079,-6320,-1.935026,-5124,-1.5688407
2023-11-30 18:05:53.923,63187,204615,160089,118,0.03612865,-4130,-1.26450275
2023-11-30 18:05:53.923,63188,204661,160118,-6067,-1.857563725,-3755,-1.149687125
2023-11-30 18:05:53.923,63189,204727,160121,-8575,-2.625450625,-4827,-1.477906725
2023-11-30 18:05:53.923,63190,204776,160144,-1040,-0.318422,-4490,-1.37472575
2023-11-30 18:05:53.923,63191,204823,160158,-3481,-1.065795175,-3642,-1.11508935
2023-11-30 18:05:53.963,63192,204910,160191,-9016,-2.7604738,-4556,-1.3949333
2023-11-30 18:05:53.963,63193,204982,160214,-3585,-1.097637375,-4965,-1.520158875
2023-11-30 18:05:53.963,63194,205024,160247,-1037,-0.317503475,-3939,-1.206023325
2023-11-30 18:05:53.963,63195,205127,160263,-8110,-2.48307925,-4350,-1.33186125
2023-11-30 18:05:53.963,63196,205206,160304,-6356,-1.9460483,-5320,-1.628851
2023-11-30 18:05:53.963,63197,205282,160336,234,0.07164495,-4501,-1.378093675
2023-11-30 18:05:53.963,63198,205371,160372,-5960,-1.824803,-4158,-1.27307565
2023-11-30 18:05:53.993,63199,205485,160396,-8260,-2.5290055,-5223,-1.599152025
2023-11-30 18:05:53.993,63200,205554,160415,-425,-0.130124375,-4933,-1.510361275
2023-11-30 18:05:53.993,63201,205611,160441,-3186,-0.97547355,-3926,-1.20204305
2023-11-30 18:05:53.993,63202,205687,160464,-8769,-2.684848575,-4661,-1.427081675
2023-11-30 18:05:53.993,63203,205753,160491,-3281,-1.004560175,-5125,-1.569146875
2023-11-30 18:05:53.993,63204,205827,160514,-495,-0.151556625,-4069,-1.245826075
2023-11-30 18:05:53.993,63205,205873,160516,-7620,-2.3330535,-4318,-1.32206365
2023-11-30 18:05:54.025,63206,205946,160548,-6921,-2.119037175,-5333,-1.632831275
2023-11-30 18:05:54.025,63207,205985,160564,54,0.01653345,-4645,-1.422182875
2023-11-30 18:05:54.025,63208,206034,160583,-6143,-1.880833025,-4261,-1.304611675
2023-11-30 18:05:54.025,63209,206096,160591,-9695,-2.968366625,-5276,-1.6153793
2023-11-30 18:05:54.025,63210,206152,160593,-1836,-0.5621373,-5055,-1.547714625
2023-11-30 18:05:54.025,63211,206188,160613,-3228,-0.9883329,-4107,-1.257460725
2023-11-30 18:05:54.025,63212,206210,160624,-9161,-2.804869175,-4821,-1.476069675
2023-11-30 18:05:54.025,63213,206248,160638,-3823,-1.170507025,-5241,-1.604663175
2023-11-30 18:05:54.025,63214,206305,160657,-571,-0.174825925,-4141,-1.267870675
2023-11-30 18:05:54.046,63215,206336,160674,-7175,-2.196805625,-4327,-1.324819225
2023-11-30 18:05:54.046,63216,206362,160669,-5908,-1.8088819,-5189,-1.588742075
2023-11-30 18:05:54.046,63217,206421,160676,594,0.18186795,-4296,-1.3153278
2023-11-30 18:05:54.046,63218,206464,160690,-5332,-1.6325251,-3822,-1.17020085
2023-11-30 18:05:54.046,63219,206491,160709,-8358,-2.55901065,-4865,-1.489541375
2023-11-30 18:05:54.046,63220,206524,160737,-597,-0.182786475,-4679,-1.432592825
2023-11-30 18:05:54.046,63221,206566,160741,-2211,-0.676952925,-3703,-1.133766025
2023-11-30 18:05:54.076,63222,206602,160744,-8781,-2.688522675,-4475,-1.370133125
2023-11-30 18:05:54.076,63223,206637,160752,-3485,-1.067019875,-5147,-1.575882725
2023-11-30 18:05:54.076,63224,206654,160761,49,0.015002575,-4208,-1.2883844
2023-11-30 18:05:54.076,63225,206700,160759,-7386,-2.26140855,-4523,-1.384829525
2023-11-30 18:05:54.076,63226,206719,160778,-6600,-2.020755,-5799,-1.775508825
2023-11-30 18:05:54.107,63227,206775,160795,378,0.11573415,-5242,-1.60496935
2023-11-30 18:05:54.107,63228,206772,160799,-5248,-1.6068064,-4689,-1.435654575
2023-11-30 18:05:54.107,63229,206814,160806,-8483,-2.597282525,-5584,-1.7096812
2023-11-30 18:05:54.138,63230,206877,160820,-1225,-0.375064375,-5314,-1.62701395
2023-11-30 18:05:54.138,63231,206891,160827,-2479,-0.759007825,-4096,-1.2540928
2023-11-30 18:05:54.138,63232,206930,160830,-8510,-2.60554925,-4418,-1.35268115
2023-11-30 18:05:54.138,63233,206968,160838,-4048,-1.2393964,-4641,-1.420958175
2023-11-30 18:05:54.138,63234,206998,160858,60,0.0183705,-3510,-1.07467425
2023-11-30 18:05:54.138,63235,207060,160879,-7232,-2.2142576,-3736,-1.1438698
2023-11-30 18:05:54.169,63236,207098,160874,-6906,-2.11444455,-4836,-1.4806623
2023-11-30 18:05:54.169,63237,207166,160897,673,0.206055775,-4126,-1.26327805
2023-11-30 18:05:54.169,63238,207210,160915,-4792,-1.4671906,-3578,-1.09549415
2023-11-30 18:05:54.169,63239,207251,160936,-8664,-2.6527002,-4666,-1.42861255
2023-11-30 18:05:54.169,63240,207332,160962,-978,-0.29943915,-4590,-1.40534325
2023-11-30 18:05:54.169,63241,207404,160981,-2234,-0.68399495,-3525,-1.079266875
2023-11-30 18:05:54.200,63242,207467,160989,-8755,-2.680562125,-4187,-1.281954725
2023-11-30 18:05:54.200,63243,207522,161018,-4166,-1.27552505,-4833,-1.479743775
2023-11-30 18:05:54.200,63244,207595,161029,-136,-0.0416398,-3863,-1.182754025
2023-11-30 18:05:54.200,63245,207634,161041,-7307,-2.237220725,-4007,-1.226843225
2023-11-30 18:05:54.200,63246,207670,161044,-7364,-2.2546727,-5063,-1.550164025
2023-11-30 18:05:54.200,63247,207612,161032,125,0.038271875,-4438,-1.35880465
2023-11-30 18:05:54.200,63248,207534,160998,-4533,-1.387891275,-3855,-1.180304625
2023-11-30 18:05:54.200,63249,207372,160922,-8749,-2.678725075,-4813,-1.473620275
2023-11-30 18:05:54.231,63250,207100,160823,-1861,-0.569791675,-4758,-1.45678065
2023-11-30 18:05:54.231,63251,206723,160690,-1618,-0.49539115,-3688,-1.1291734
2023-11-30 18:05:54.231,63252,206296,160549,-8485,-2.597894875,-4290,-1.31349075
2023-11-30 18:05:54.231,63253,205900,160417,-4950,-1.51556625,-4927,-1.508524225
2023-11-30 18:05:54.231,63254,205578,160309,-221,-0.067664675,-3826,-1.17142555
2023-11-30 18:05:54.231,63255,205268,160196,-7101,-2.174148675,-3817,-1.168669975
2023-11-30 18:05:54.231,63256,204987,160114,-7570,-2.31774475,-4885,-1.495664875
2023-11-30 18:05:54.262,63257,204661,160020,-231,-0.070726425,-4264,-1.3055302
2023-11-30 18:05:54.262,63258,204403,159937,-4712,-1.4426966,-3687,-1.128867225
2023-11-30 18:05:54.262,63259,204156,159856,-8829,-2.703219075,-4759,-1.457086825
2023-11-30 18:05:54.262,63260,203948,159778,-2061,-0.631026675,-4820,-1.4757635
2023-11-30 18:05:54.262,63261,203765,159731,-1925,-0.589386875,-3803,-1.164383525
2023-11-30 18:05:54.308,63262,203610,159669,-8362,-2.56023535,-4440,-1.359417
2023-11-30 18:05:54.308,63263,203468,159637,-4545,-1.391565375,-5194,-1.59027295
2023-11-30 18:05:54.308,63264,203336,159607,223,0.068277025,-4174,-1.27797445
2023-11-30 18:05:54.308,63265,203263,159581,-6308,-1.9313519,-4040,-1.236947
2023-11-30 18:05:54.308,63266,203196,159575,-6661,-2.039431675,-5082,-1.55598135
2023-11-30 18:05:54.308,63267,203150,159558,546,0.16717155,-4550,-1.39309625
2023-11-30 18:05:54.308,63268,203138,159564,-3544,-1.0850842,-3776,-1.1561168
2023-11-30 18:05:54.352,63269,203129,159561,-7553,-2.312539775,-4694,-1.43718545
2023-11-30 18:05:54.352,63270,203127,159561,-1103,-0.337711025,-4912,-1.5039316
2023-11-30 18:05:54.352,63271,203152,159571,-548,-0.1677839,-3955,-1.210922125
2023-11-30 18:05:54.352,63272,203184,159589,-7048,-2.1579214,-4505,-1.379318375
2023-11-30 18:05:54.352,63273,203223,159600,-4257,-1.303386975,-5285,-1.618134875
2023-11-30 18:05:54.352,63274,203250,159616,824,0.2522882,-4372,-1.3385971
2023-11-30 18:05:54.383,63275,203312,159633,-5215,-1.596702625,-4269,-1.307061075
2023-11-30 18:05:54.383,63276,203354,159654,-6213,-1.902265275,-5264,-1.6117052
2023-11-30 18:05:54.383,63277,203397,159662,621,0.190134675,-4720,-1.445146
2023-11-30 18:05:54.383,63278,203449,159689,-2766,-0.84688005,-3957,-1.211534475
2023-11-30 18:05:54.383,63279,203509,159701,-6921,-2.119037175,-4785,-1.465047375
2023-11-30 18:05:54.383,63280,203556,159725,-916,-0.2804563,-4833,-1.479743775
2023-11-30 18:05:54.383,63281,203594,159740,-516,-0.1579863,-3695,-1.131316625
2023-11-30 18:05:54.413,63282,203636,159741,-6422,-1.96625585,-4019,-1.230517325
2023-11-30 18:05:54.413,63283,203627,159748,-3131,-0.958633925,-4581,-1.402587675
2023-11-30 18:05:54.413,63284,203654,159742,1554,0.47579595,-3513,-1.075592775
2023-11-30 18:05:54.413,63285,203653,159762,-4394,-1.34533295,-3241,-0.992313175
2023-11-30 18:05:54.413,63286,203664,159754,-5428,-1.6619179,-4125,-1.262971875
2023-11-30 18:05:54.413,63287,203676,159756,1705,0.522028375,-3582,-1.09671885
2023-11-30 18:05:54.413,63288,203687,159761,-1704,-0.5217222,-2770,-0.84810475
2023-11-30 18:05:54.444,63289,203697,159753,-6423,-1.966562025,-3604,-1.1034547
2023-11-30 18:05:54.444,63290,203697,159761,-214,-0.06552145,-3870,-1.18489725
2023-11-30 18:05:54.444,63291,203702,159755,311,0.095220425,-2875,-0.880253125
2023-11-30 18:05:54.444,63292,203717,159777,-5901,-1.806738675,-3188,-0.9760859
2023-11-30 18:05:54.444,63293,203754,159777,-3015,-0.923117625,-3907,-1.196225725
2023-11-30 18:05:54.444,63294,203804,159791,1380,0.4225215,-3079,-0.942712825
2023-11-30 18:05:54.444,63295,203845,159812,-4083,-1.250112525,-2827,-0.865556725
2023-11-30 18:05:54.444,63296,203900,159840,-5184,-1.5872112,-3641,-1.114783175
2023-11-30 18:05:54.444,63297,203987,159859,1252,0.3833311,-3155,-0.965982125
2023-11-30 18:05:54.474,63298,204057,159882,-1441,-0.441198175,-2431,-0.744311425
2023-11-30 18:05:54.474,63299,204140,159895,-5949,-1.821435075,-3172,-0.9711871
2023-11-30 18:05:54.474,63300,204221,159925,-550,-0.16839625,-3247,-0.994150225
2023-11-30 18:05:54.474,63301,204285,159950,750,0.22963125,-2176,-0.6662368
2023-11-30 18:05:54.474,63302,204356,159976,-5515,-1.688555125,-2466,-0.75502755
2023-11-30 18:05:54.474,63303,204407,159990,-2872,-0.8793346,-3094,-0.94730545
2023-11-30 18:05:54.474,63304,204456,160002,2048,0.6270464,-2096,-0.6417428
2023-11-30 18:05:54.474,63305,204501,160022,-3437,-1.052323475,-1768,-0.5413174
2023-11-30 18:05:54.474,63306,204523,160027,-5168,-1.5823124,-2723,-0.833714525
2023-11-30 18:05:54.505,63307,204536,160026,1629,0.498759075,-2393,-0.732676775
2023-11-30 18:05:54.505,63308,204535,160030,-1474,-0.45130195,-1737,-0.531825975
2023-11-30 18:05:54.505,63309,204549,160033,-6082,-1.86215635,-2572,-0.7874821
2023-11-30 18:05:54.505,63310,204542,160037,-185,-0.056642375,-2834,-0.86769995
2023-11-30 18:05:54.505,63311,204536,160039,990,0.30311325,-1944,-0.5952042
2023-11-30 18:05:54.536,63312,204560,160053,-5157,-1.578944475,-2267,-0.694098725
2023-11-30 18:05:54.536,63313,204544,160035,-3134,-0.95955245,-2958,-0.90566565
2023-11-30 18:05:54.536,63314,204541,160037,1887,0.577752225,-2148,-0.6576639
2023-11-30 18:05:54.536,63315,204544,160026,-3059,-0.936589325,-1815,-0.555707625
2023-11-30 18:05:54.566,63316,204541,160040,-5238,-1.60374465,-2651,-0.811669925
2023-11-30 18:05:54.566,63317,204565,160028,1103,0.337711025,-2305,-0.705733375
2023-11-30 18:05:54.566,63318,204571,160030,-695,-0.212791625,-1554,-0.47579595
2023-11-30 18:05:54.566,63319,204562,160034,-5900,-1.8064325,-2282,-0.69869135
2023-11-30 18:05:54.566,63320,204587,160043,-1181,-0.361592675,-2532,-0.7752351
2023-11-30 18:05:54.566,63321,204618,160037,592,0.1812556,-1556,-0.4764083
2023-11-30 18:05:54.597,63322,204646,160055,-5272,-1.6141546,-1818,-0.55662615
2023-11-30 18:05:54.597,63323,204644,160061,-3515,-1.076205125,-2570,-0.78686975
2023-11-30 18:05:54.597,63324,204693,160064,1409,0.431400575,-1808,-0.5535644
2023-11-30 18:05:54.597,63325,204749,160075,-3422,-1.04773085,-1571,-0.481000925
2023-11-30 18:05:54.597,63326,204782,160102,-5431,-1.662836425,-2523,-0.772479525
2023-11-30 18:05:54.597,63327,204830,160109,978,0.29943915,-2195,-0.672054125
2023-11-30 18:05:54.628,63328,204892,160132,-1084,-0.3318937,-1417,-0.433849975
2023-11-30 18:05:54.628,63329,204961,160156,-6071,-1.858788425,-2149,-0.657970075
2023-11-30 18:05:54.628,63330,205011,160173,-903,-0.276476025,-2488,-0.7617634
2023-11-30 18:05:54.628,63331,205101,160197,823,0.251982025,-1532,-0.4690601
2023-11-30 18:05:54.628,63332,205155,160235,-5126,-1.56945305,-1679,-0.514067825
2023-11-30 18:05:54.628,63333,205226,160249,-3577,-1.095187975,-2493,-0.763294275
2023-11-30 18:05:54.628,63334,205311,160287,1756,0.5376433,-1885,-0.577139875
2023-11-30 18:05:54.628,63335,205385,160302,-2989,-0.915157075,-1544,-0.4727342
2023-11-30 18:05:54.656,63336,205478,160322,-5683,-1.739992525,-2468,-0.7556399
2023-11-30 18:05:54.656,63337,205554,160356,1200,0.36741,-2438,-0.74645465
2023-11-30 18:05:54.656,63338,205621,160374,-573,-0.175438275,-1717,-0.525702475
2023-11-30 18:05:54.656,63339,205741,160403,-6386,-1.95523355,-2387,-0.730839725
2023-11-30 18:05:54.656,63340,205778,160441,-1580,-0.4837565,-2776,-0.8499418
2023-11-30 18:05:54.656,63341,205843,160445,947,0.289947725,-1969,-0.602858575
2023-11-30 18:05:54.689,63342,205932,160465,-5208,-1.5945594,-2183,-0.668380025
2023-11-30 18:05:54.689,63343,205992,160498,-4023,-1.231742025,-2905,-0.889438375
2023-11-30 18:05:54.689,63344,206056,160498,1456,0.4457908,-2151,-0.658582425
2023-11-30 18:05:54.689,63345,206111,160536,-3332,-1.0201751,-1737,-0.531825975
2023-11-30 18:05:54.689,63346,206170,160553,-5916,-1.8113313,-2596,-0.7948303
2023-11-30 18:05:54.719,63347,206217,160557,784,0.2400412,-2398,-0.73420765
2023-11-30 18:05:54.719,63348,206275,160579,-998,-0.30556265,-1647,-0.504270225
2023-11-30 18:05:54.719,63349,206329,160596,-6465,-1.979421375,-2317,-0.709407475
2023-11-30 18:05:54.749,63350,206357,160612,-1334,-0.40843745,-2697,-0.825753975
2023-11-30 18:05:54.749,63351,206402,160622,1376,0.4212968,-1753,-0.536724775
2023-11-30 18:05:54.749,63352,206455,160637,-5246,-1.60619405,-1871,-0.572853425
2023-11-30 18:05:54.749,63353,206504,160642,-4141,-1.267870675,-2698,-0.82606015
2023-11-30 18:05:54.749,63354,206504,160646,1950,0.59704125,-2000,-0.61235
2023-11-30 18:05:54.749,63355,206545,160646,-3158,-0.96690065,-1562,-0.47824535
2023-11-30 18:05:54.779,63356,206579,160670,-6378,-1.95278415,-2584,-0.7911562
2023-11-30 18:05:54.779,63357,206605,160678,937,0.286885975,-2586,-0.79176855
2023-11-30 18:05:54.779,63358,206647,160695,-796,-0.2437153,-1808,-0.5535644
2023-11-30 18:05:54.779,63359,206688,160697,-6738,-2.06300715,-2442,-0.74767935
2023-11-30 18:05:54.779,63360,206707,160686,-1791,-0.548359425,-2932,-0.8977051
2023-11-30 18:05:54.810,63361,206726,160704,1026,0.31413555,-2092,-0.6405181
2023-11-30 18:05:54.810,63362,206741,160720,-5299,-1.622421325,-2227,-0.681851725
2023-11-30 18:05:54.810,63363,206786,160728,-4616,-1.4133038,-3017,-0.923729975
2023-11-30 18:05:54.810,63364,206804,160728,1500,0.4592625,-2314,-0.70848895
2023-11-30 18:05:54.810,63365,206833,160744,-3053,-0.934752275,-1891,-0.578976925
2023-11-30 18:05:54.810,63366,206860,160737,-6453,-1.975747275,-2844,-0.8707617
2023-11-30 18:05:54.810,63367,206891,160748,355,0.108692125,-2672,-0.8180996
2023-11-30 18:05:54.840,63368,206912,160770,-495,-0.151556625,-1722,-0.52723335
2023-11-30 18:05:54.840,63369,206945,160762,-6761,-2.070049175,-2328,-0.7127754
2023-11-30 18:05:54.840,63370,206977,160788,-2134,-0.65337745,-2806,-0.85912705
2023-11-30 18:05:54.840,63371,206996,160782,1270,0.38884225,-1837,-0.562443475
2023-11-30 18:05:54.840,63372,207035,160800,-5503,-1.684881025,-1984,-0.6074512
2023-11-30 18:05:54.840,63373,207056,160807,-5104,-1.5627172,-2980,-0.9124015
2023-11-30 18:05:54.840,63374,207056,160808,1462,0.44762785,-2359,-0.722266825
2023-11-30 18:05:54.890,63375,207095,160815,-4183,-1.280730025,-1907,-0.583875725
2023-11-30 18:05:54.890,63376,207128,160825,-8075,-2.472363125,-2926,-0.89586805
2023-11-30 18:05:54.890,63377,207147,160831,-507,-0.155230725,-2878,-0.88117165
2023-11-30 18:05:54.890,63378,207186,160840,-1125,-0.344446875,-1973,-0.604083275
2023-11-30 18:05:54.890,63379,207227,160841,-7535,-2.307028625,-2568,-0.7862574
2023-11-30 18:05:54.890,63380,207241,160861,-2840,-0.869537,-3128,-0.9577154
2023-11-30 18:05:54.890,63381,207278,160869,1474,0.45130195,-2223,-0.680627025
2023-11-30 18:05:54.890,63382,207321,160882,-4855,-1.486479625,-2259,-0.691649325
2023-11-30 18:05:54.890,63383,207348,160890,-5180,-1.5859865,-3177,-0.972717975
2023-11-30 18:05:54.921,63384,207403,160913,1270,0.38884225,-2561,-0.784114175
2023-11-30 18:05:54.921,63385,207438,160920,-2979,-0.912095325,-1992,-0.6099006
2023-11-30 18:05:54.921,63386,207473,160933,-7267,-2.224973725,-2949,-0.902910075
2023-11-30 18:05:54.921,63387,207520,160928,-714,-0.21860895,-2949,-0.902910075
2023-11-30 18:05:54.921,63388,207557,160964,-896,-0.2743328,-2018,-0.61786115
2023-11-30 18:05:54.921,63389,207619,160974,-7214,-2.20874645,-2654,-0.81258845
2023-11-30 18:05:54.921,63390,207640,160984,-3447,-1.055385225,-3306,-1.01221455
2023-11-30 18:05:54.951,63391,207690,160986,601,0.184011175,-2467,-0.755333725
2023-11-30 18:05:54.951,63392,207757,161011,-5808,-1.7782644,-2796,-0.8560653
2023-11-30 18:05:54.951,63393,207785,161022,-6086,-1.86338105,-4107,-1.257460725
2023-11-30 18:05:54.951,63394,207834,161038,752,0.2302436,-3605,-1.103760875
2023-11-30 18:05:54.951,63395,207890,161035,-3240,-0.992007,-2968,-0.9087274
2023-11-30 18:05:54.951,63396,207915,161061,-7388,-2.2620209,-3898,-1.19347015
2023-11-30 18:05:54.982,63397,207961,161077,-473,-0.144820775,-3799,-1.163158825
2023-11-30 18:05:54.982,63398,208011,161102,-778,-0.23820415,-2475,-0.757783125
2023-11-30 18:05:54.982,63399,208068,161104,-7098,-2.17323015,-2629,-0.804934075
2023-11-30 18:05:54.982,63400,208115,161129,-3371,-1.032115925,-3112,-0.9528166
2023-11-30 18:05:54.982,63401,208169,161145,1089,0.333424575,-2216,-0.6784838
2023-11-30 18:05:54.982,63402,208212,161171,-5437,-1.664673475,-2273,-0.695935775
2023-11-30 18:05:54.982,63403,208288,161183,-6174,-1.89032445,-3472,-1.0630396
2023-11-30 18:05:55.012,63404,208333,161202,1009,0.308930575,-3205,-0.981290875
2023-11-30 18:05:55.012,63405,208387,161217,-2790,-0.85422825,-2713,-0.830652775
2023-11-30 18:05:55.012,63406,208453,161241,-7756,-2.3746933,-3672,-1.1242746
2023-11-30 18:05:55.012,63407,208508,161250,-1106,-0.33862955,-3791,-1.160709425
2023-11-30 18:05:55.012,63408,208563,161287,-509,-0.155843075,-2828,-0.8658629
2023-11-30 18:05:55.012,63409,208632,161296,-7405,-2.267225875,-3314,-1.01466395
2023-11-30 18:05:55.043,63410,208664,161296,-4168,-1.2761374,-4003,-1.225618525
2023-11-30 18:05:55.043,63411,208705,161308,753,0.230549775,-3103,-0.950061025
2023-11-30 18:05:55.043,63412,208692,161308,-5705,-1.746728375,-2988,-0.9148509
2023-11-30 18:05:55.043,63413,208626,161282,-6623,-2.027797025,-3908,-1.1965319
2023-11-30 18:05:55.043,63414,208444,161205,808,0.2473894,-3312,-1.0140516
2023-11-30 18:05:55.083,63415,208145,161081,-3149,-0.964145075,-2575,-0.788400625
2023-11-30 18:05:55.083,63416,207707,160920,-7901,-2.419088675,-3441,-1.053548175
2023-11-30 18:05:55.083,63417,207148,160720,-844,-0.2584117,-3548,-1.0863089
2023-11-30 18:05:55.083,63418,206540,160520,-270,-0.08266725,-2551,-0.781052425
2023-11-30 18:05:55.083,63419,206031,160345,-7676,-2.3501993,-3059,-0.936589325
2023-11-30 18:05:55.083,63420,205631,160214,-4155,-1.272157125,-3847,-1.177855225
2023-11-30 18:05:55.083,63421,205288,160108,1321,0.404457175,-2921,-0.894337175
2023-11-30 18:05:55.083,63422,204925,160003,-5730,-1.75438275,-2720,-0.832796
2023-11-30 18:05:55.113,63423,204576,159876,-7034,-2.15363495,-3797,-1.162546475
2023-11-30 18:05:55.113,63424,204316,159791,856,0.2620858,-3431,-1.050486425
2023-11-30 18:05:55.113,63425,204079,159708,-3357,-1.027829475,-2734,-0.83708245
2023-11-30 18:05:55.113,63426,203857,159648,-8523,-2.609529525,-3697,-1.131928975
2023-11-30 18:05:55.113,63427,203670,159573,-1771,-0.542235925,-4005,-1.226230875
2023-11-30 18:05:55.113,63428,203498,159542,-693,-0.212179275,-3037,-0.929853475
2023-11-30 18:05:55.144,63429,203354,159494,-7709,-2.360303075,-3459,-1.059059325
2023-11-30 18:05:55.144,63430,203235,159458,-4768,-1.4598424,-4193,-1.283791775
2023-11-30 18:05:55.144,63431,203156,159423,1059,0.324239325,-3240,-0.992007
2023-11-30 18:05:55.144,63432,203078,159406,-5525,-1.691616875,-3043,-0.931690525
2023-11-30 18:05:55.144,63433,203018,159393,-7229,-2.213339075,-4065,-1.244601375
2023-11-30 18:05:55.144,63434,203002,159387,671,0.205443425,-3516,-1.0765113
2023-11-30 18:05:55.144,63435,202987,159386,-2399,-0.734513825,-2677,-0.819630475
2023-11-30 18:05:55.144,63436,202999,159386,-8226,-2.51859555,-3655,-1.119069625
2023-11-30 18:05:55.174,63437,202982,159390,-1526,-0.46722305,-3925,-1.201736875
2023-11-30 18:05:55.174,63438,203002,159403,-164,-0.0502127,-2825,-0.864944375
2023-11-30 18:05:55.174,63439,203039,159404,-7366,-2.25528505,-3301,-1.010683675
2023-11-30 18:05:55.174,63440,203053,159406,-4446,-1.36125405,-4225,-1.293589375
2023-11-30 18:05:55.174,63441,203105,159423,1170,0.35822475,-3344,-1.0238492
2023-11-30 18:05:55.174,63442,203123,159440,-5384,-1.6484462,-3193,-0.977616775
2023-11-30 18:05:55.174,63443,203157,159450,-7213,-2.208440275,-4390,-1.34410825
2023-11-30 18:05:55.204,63444,203190,159462,431,0.131961425,-4051,-1.240314925
2023-11-30 18:05:55.204,63445,203209,159468,-2488,-0.7617634,-3235,-0.990476125
2023-11-30 18:05:55.204,63446,203231,159470,-8141,-2.492570675,-4126,-1.26327805
2023-11-30 18:05:55.204,63447,203238,159469,-2081,-0.637150175,-4408,-1.3496194
2023-11-30 18:05:55.204,63448,203248,159472,159,0.048681825,-3242,-0.99261935
2023-11-30 18:05:55.204,63449,203241,159480,-7230,-2.21364525,-3503,-1.072531025
2023-11-30 18:05:55.204,63450,203234,159486,-5291,-1.619971925,-4313,-1.320532775
2023-11-30 18:05:55.204,63451,203230,159464,826,0.25290055,-3322,-1.01711335
2023-11-30 18:05:55.204,63452,203225,159471,-5248,-1.6068064,-2925,-0.895561875
2023-11-30 18:05:55.235,63453,203213,159460,-7689,-2.354179575,-4026,-1.23266055
2023-11-30 18:05:55.235,63454,203196,159455,-158,-0.04837565,-3717,-1.138052475
2023-11-30 18:05:55.235,63455,203195,159457,-2507,-0.767580725,-2855,-0.874129625
2023-11-30 18:05:55.235,63456,203167,159444,-8421,-2.578299675,-3688,-1.1291734
2023-11-30 18:05:55.235,63457,203142,159445,-2930,-0.89709275,-3978,-1.21796415
2023-11-30 18:05:55.235,63458,203148,159431,-483,-0.147882525,-2905,-0.889438375
2023-11-30 18:05:55.235,63459,203140,159439,-7372,-2.2571221,-3294,-1.00854045
2023-11-30 18:05:55.265,63460,203130,159437,-5369,-1.643853575,-4249,-1.300937575
2023-11-30 18:05:55.265,63461,203145,159445,748,0.2290189,-3403,-1.041913525
2023-11-30 18:05:55.265,63462,203173,159429,-5082,-1.55598135,-3032,-0.9283226
2023-11-30 18:05:55.265,63463,203208,159450,-7626,-2.33489055,-4124,-1.2626657
2023-11-30 18:05:55.265,63464,203234,159459,-65,-0.019901375,-3865,-1.183366375
2023-11-30 18:05:55.295,63465,203280,159461,-2348,-0.7188989,-2922,-0.89464335
2023-11-30 18:05:55.295,63466,203346,159502,-8129,-2.488896575,-3724,-1.1401957
2023-11-30 18:05:55.295,63467,203400,159511,-2606,-0.79789205,-4216,-1.2908338
2023-11-30 18:05:55.295,63468,203464,159534,251,0.076849925,-3219,-0.985577325
2023-11-30 18:05:55.326,63469,203510,159565,-6972,-2.1346521,-3508,-1.0740619
2023-11-30 18:05:55.326,63470,203588,159577,-5943,-1.819598025,-4511,-1.381155425
2023-11-30 18:05:55.326,63471,203630,159599,842,0.25779935,-3782,-1.15795385
2023-11-30 18:05:55.326,63472,203684,159629,-4568,-1.3986074,-3379,-1.034565325
2023-11-30 18:05:55.326,63473,203762,159642,-7900,-2.4187825,-4456,-1.3643158
2023-11-30 18:05:55.326,63474,203773,159637,-346,-0.10593655,-4320,-1.322676
2023-11-30 18:05:55.357,63475,203839,159656,-2050,-0.62765875,-3434,-1.05140495
2023-11-30 18:05:55.357,63476,203844,159663,-8263,-2.529924025,-4135,-1.266033625
2023-11-30 18:05:55.357,63477,203860,159676,-2963,-0.907196525,-4517,-1.382992475
2023-11-30 18:05:55.357,63478,203892,159676,-70,-0.02143225,-3441,-1.053548175
2023-11-30 18:05:55.357,63479,203906,159679,-7020,-2.1493485,-3613,-1.106210275
2023-11-30 18:05:55.357,63480,203923,159677,-5809,-1.778570575,-4480,-1.371664
2023-11-30 18:05:55.387,63481,203941,159683,878,0.26882165,-3634,-1.11263995
2023-11-30 18:05:55.387,63482,203939,159701,-4702,-1.43963485,-3145,-0.962920375
2023-11-30 18:05:55.387,63483,203941,159694,-7739,-2.369488325,-4195,-1.284404125
2023-11-30 18:05:55.387,63484,203978,159684,140,0.0428645,-4044,-1.2381717
2023-11-30 18:05:55.387,63485,203982,159697,-1579,-0.483450325,-3074,-0.94118195
2023-11-30 18:05:55.387,63486,203993,159698,-8309,-2.544008075,-3796,-1.1622403
2023-11-30 18:05:55.387,63487,204004,159705,-2664,-0.8156502,-4364,-1.3361477
2023-11-30 18:05:55.387,63488,204032,159708,618,0.18921615,-3302,-1.01098985
2023-11-30 18:05:55.418,63489,204051,159712,-6927,-2.120874225,-3387,-1.037014725
2023-11-30 18:05:55.418,63490,204097,159729,-5864,-1.7954102,-4416,-1.3520688
2023-11-30 18:05:55.418,63491,204117,159732,1125,0.344446875,-3779,-1.157035325
2023-11-30 18:05:55.418,63492,204173,159737,-4573,-1.400138275,-3287,-1.006397225
2023-11-30 18:05:55.418,63493,204176,159747,-7980,-2.4432765,-4292,-1.3141031
2023-11-30 18:05:55.418,63494,204237,159759,-429,-0.131349075,-4162,-1.27430035
2023-11-30 18:05:55.459,63495,204289,159777,-1711,-0.523865425,-3209,-0.982515575
2023-11-30 18:05:55.459,63496,204332,159798,-8158,-2.49777565,-3907,-1.196225725
2023-11-30 18:05:55.459,63497,204396,159812,-3268,-1.0005799,-4445,-1.360947875
2023-11-30 18:05:55.459,63498,204438,159840,707,0.216465725,-3402,-1.04160735
2023-11-30 18:05:55.459,63499,204494,159865,-6556,-2.0072833,-3493,-1.069469275
2023-11-30 18:05:55.489,63500,204573,159867,-6076,-1.8603193,-4387,-1.343189725
2023-11-30 18:05:55.489,63501,204617,159899,1236,0.3784323,-3505,-1.073143375
2023-11-30 18:05:55.489,63502,204699,159914,-4048,-1.2393964,-2892,-0.8854581
2023-11-30 18:05:55.489,63503,204761,159948,-8173,-2.502368275,-3989,-1.221332075
2023-11-30 18:05:55.489,63504,204834,159965,-239,-0.073175825,-3902,-1.19469485
2023-11-30 18:05:55.489,63505,204888,159990,-1540,-0.4715095,-2876,-0.8805593
2023-11-30 18:05:55.489,63506,204971,160020,-8223,-2.517677025,-3608,-1.1046794
2023-11-30 18:05:55.520,63507,205034,160044,-3374,-1.03303445,-4241,-1.298488175
2023-11-30 18:05:55.520,63508,205110,160044,492,0.1506381,-3211,-0.983127925
2023-11-30 18:05:55.520,63509,205169,160074,-6886,-2.10832105,-3337,-1.021705975
2023-11-30 18:05:55.520,63510,205236,160111,-6552,-2.0060586,-4406,-1.34900705
2023-11-30 18:05:55.520,63511,205285,160117,889,0.272189575,-3739,-1.144788325
2023-11-30 18:05:55.520,63512,205363,160137,-3958,-1.21184065,-3148,-0.9638389
2023-11-30 18:05:55.551,63513,205404,160158,-8308,-2.5437019,-4183,-1.280730025
2023-11-30 18:05:55.551,63514,205462,160167,-1060,-0.3245455,-4147,-1.269707725
2023-11-30 18:05:55.551,63515,205520,160193,-1014,-0.31046145,-3057,-0.935976975
2023-11-30 18:05:55.551,63516,205584,160192,-8157,-2.497469475,-3625,-1.109884375
2023-11-30 18:05:55.581,63517,205622,160221,-4218,-1.29144615,-4220,-1.2920585
2023-11-30 18:05:55.581,63518,205683,160226,402,0.12308235,-3115,-0.953735125
2023-11-30 18:05:55.581,63519,205732,160245,-6502,-1.99074985,-3125,-0.956796875
2023-11-30 18:05:55.581,63520,205757,160253,-7233,-2.214563775,-4229,-1.294814075
2023-11-30 18:05:55.581,63521,205825,160290,-7,-0.002143225,-3614,-1.10651645
2023-11-30 18:05:55.581,63522,205838,160292,-4233,-1.296038775,-3038,-0.93015965
2023-11-30 18:05:55.581,63523,205891,160300,-8605,-2.634635875,-4130,-1.26450275
2023-11-30 18:05:55.611,63524,205914,160308,-1717,-0.525702475,-4163,-1.274606525
2023-11-30 18:05:55.611,63525,205946,160306,-1486,-0.45497605,-3146,-0.96322655
2023-11-30 18:05:55.611,63526,205987,160319,-8158,-2.49777565,-3819,-1.169282325
2023-11-30 18:05:55.611,63527,206004,160320,-4215,-1.290527625,-4541,-1.390340675
2023-11-30 18:05:55.611,63528,206067,160345,354,0.10838595,-3482,-1.06610135
2023-11-30 18:05:55.611,63529,206084,160362,-6398,-1.95890765,-3397,-1.040076475
2023-11-30 18:05:55.642,63530,206130,160370,-6789,-2.078622075,-4491,-1.375031925
2023-11-30 18:05:55.642,63531,206152,160376,657,0.201156975,-3918,-1.19959365
2023-11-30 18:05:55.642,63532,206194,160386,-3867,-1.183978725,-3139,-0.961083325
2023-11-30 18:05:55.642,63533,206238,160413,-8375,-2.564215625,-4120,-1.261441
2023-11-30 18:05:55.642,63534,206276,160422,-1268,-0.3882299,-4343,-1.329718025
2023-11-30 18:05:55.642,63535,206322,160422,-784,-0.2400412,-3366,-1.03058505
2023-11-30 18:05:55.642,63536,206369,160440,-7940,-2.4310295,-3934,-1.20449245
2023-11-30 18:05:55.642,63537,206404,160450,-4694,-1.43718545,-4792,-1.4671906
2023-11-30 18:05:55.672,63538,206456,160460,695,0.212791625,-3950,-1.20939125
2023-11-30 18:05:55.672,63539,206488,160479,-6205,-1.899815875,-3864,-1.1830602
2023-11-30 18:05:55.672,63540,206552,160493,-7430,-2.27488025,-4909,-1.503013075
2023-11-30 18:05:55.672,63541,206575,160513,156,0.0477633,-4410,-1.35023175
2023-11-30 18:05:55.672,63542,206650,160523,-3602,-1.10284235,-3661,-1.120906675
2023-11-30 18:05:55.672,63543,206707,160547,-8634,-2.64351495,-4505,-1.379318375
2023-11-30 18:05:55.672,63544,206748,160559,-2040,-0.624597,-4544,-1.3912592
2023-11-30 18:05:55.703,63545,206788,160589,-1271,-0.389148425,-3431,-1.050486425
2023-11-30 18:05:55.703,63546,206843,160591,-8162,-2.49900035,-3867,-1.183978725
2023-11-30 18:05:55.703,63547,206870,160603,-4621,-1.414834675,-4542,-1.39064685
2023-11-30 18:05:55.703,63548,206927,160622,724,0.2216707,-3541,-1.084165675
2023-11-30 18:05:55.703,63549,206976,160636,-6112,-1.8713416,-3435,-1.051711125
2023-11-30 18:05:55.744,63550,207013,160639,-7399,-2.265388825,-4524,-1.3851357
2023-11-30 18:05:55.744,63551,207061,160662,740,0.2265695,-3980,-1.2185765
2023-11-30 18:05:55.744,63552,207098,160669,-3283,-1.005172525,-3134,-0.95955245
2023-11-30 18:05:55.744,63553,207153,160697,-8687,-2.659742225,-4090,-1.25225575
2023-11-30 18:05:55.744,63554,207179,160699,-1333,-0.408131275,-4394,-1.34533295
2023-11-30 18:05:55.744,63555,207236,160719,-493,-0.150944275,-3351,-1.025992425
2023-11-30 18:05:55.744,63556,207279,160736,-8046,-2.46348405,-3808,-1.1659144
2023-11-30 18:05:55.765,63557,207330,160737,-4582,-1.40289385,-4704,-1.4402472
2023-11-30 18:05:55.765,63558,207394,160766,855,0.261779625,-3843,-1.176630525
2023-11-30 18:05:55.765,63559,207442,160790,-6192,-1.8958356,-3645,-1.116007875
2023-11-30 18:05:55.765,63560,207499,160796,-7590,-2.32386825,-4737,-1.450350975
2023-11-30 18:05:55.765,63561,207555,160816,264,0.0808302,-4365,-1.336453875
2023-11-30 18:05:55.765,63562,207590,160847,-3399,-1.040688825,-3603,-1.103148525
2023-11-30 18:05:55.795,63563,207660,160853,-8530,-2.61167275,-4466,-1.36737755
2023-11-30 18:05:55.795,63564,207727,160861,-2063,-0.631639025,-4612,-1.4120791
2023-11-30 18:05:55.795,63565,207792,160895,-452,-0.1383911,-3454,-1.05752845
2023-11-30 18:05:55.795,63566,207836,160904,-7705,-2.359078375,-3852,-1.1793861
2023-11-30 18:05:55.795,63567,207895,160924,-5081,-1.555675175,-4646,-1.42248905
2023-11-30 18:05:55.825,63568,207943,160938,921,0.281987175,-3582,-1.09671885
2023-11-30 18:05:55.825,63569,208007,160965,-6016,-1.8419488,-3284,-1.0054787
2023-11-30 18:05:55.825,63570,208025,160972,-8295,-2.539721625,-4416,-1.3520688
2023-11-30 18:05:55.825,63571,208085,160999,206,0.06307205,-3968,-1.2149024
2023-11-30 18:05:55.825,63572,208129,161009,-3743,-1.146013025,-3118,-0.95465365
2023-11-30 18:05:55.825,63573,208170,161018,-9985,-3.057157375,-4078,-1.24858165
2023-11-30 18:05:55.825,63574,208235,161031,-2817,-0.862494975,-4352,-1.3324736
2023-11-30 18:05:55.855,63575,208293,161057,-863,-0.264229025,-3247,-0.994150225
2023-11-30 18:05:55.855,63576,208330,161061,-7918,-2.42429365,-3718,-1.13835865
2023-11-30 18:05:55.855,63577,208384,161084,-5074,-1.55353195,-4680,-1.432899
2023-11-30 18:05:55.855,63578,208429,161106,935,0.286273625,-3827,-1.171731725
2023-11-30 18:05:55.855,63579,208493,161118,-5576,-1.7072318,-3580,-1.0961065
2023-11-30 18:05:55.855,63580,208545,161134,-7961,-2.437459175,-4669,-1.429531075
2023-11-30 18:05:55.887,63581,208591,161161,-155,-0.047457125,-4261,-1.304611675
2023-11-30 18:05:55.887,63582,208628,161174,-2664,-0.8156502,-3295,-1.008846625
2023-11-30 18:05:55.887,63583,208700,161182,-8879,-2.718527825,-4084,-1.2504187
2023-11-30 18:05:55.887,63584,208716,161186,-2839,-0.869230825,-4403,-1.348088525
2023-11-30 18:05:55.887,63585,208771,161205,-331,-0.101343925,-3316,-1.0152763
2023-11-30 18:05:55.887,63586,208784,161206,-7837,-2.399493475,-3786,-1.15917855
2023-11-30 18:05:55.887,63587,208840,161236,-6075,-1.860013125,-4870,-1.49107225
2023-11-30 18:05:55.887,63588,208883,161235,303,0.092771025,-4041,-1.237253175
2023-11-30 18:05:55.928,63589,208894,161234,-5949,-1.821435075,-3885,-1.189489875
2023-11-30 18:05:55.928,63590,208946,161250,-8385,-2.567277375,-5294,-1.62089045
2023-11-30 18:05:55.928,63591,208949,161267,-702,-0.21493485,-5061,-1.549551675
2023-11-30 18:05:55.928,63592,208993,161278,-3180,-0.9736365,-4028,-1.2332729
2023-11-30 18:05:55.928,63593,209037,161285,-9051,-2.771189925,-4660,-1.4267755
2023-11-30 18:05:55.928,63594,209066,161286,-2984,-0.9136262,-4790,-1.46657825
2023-11-30 18:05:55.928,63595,209084,161309,-638,-0.19533965,-3478,-1.06487665
2023-11-30 18:05:55.959,63596,209130,161318,-7912,-2.4224566,-3644,-1.1157017
2023-11-30 18:05:55.959,63597,209156,161327,-6027,-1.845316725,-4565,-1.397688875
2023-11-30 18:05:55.959,63598,209190,161349,526,0.16104805,-3741,-1.145400675
2023-11-30 18:05:55.959,63599,209237,161348,-5662,-1.73356285,-3394,-1.03915795
2023-11-30 18:05:55.959,63600,209278,161364,-8347,-2.555642725,-4655,-1.425244625
2023-11-30 18:05:55.989,63601,209300,161386,-365,-0.111753875,-4568,-1.3986074
2023-11-30 18:05:55.989,63602,209349,161382,-2672,-0.8180996,-3623,-1.109272025
2023-11-30 18:05:55.989,63603,209394,161409,-8771,-2.685460925,-4363,-1.335841525
2023-11-30 18:05:55.989,63604,209416,161414,-3254,-0.99629345,-4819,-1.475457325
2023-11-30 18:05:55.989,63605,209485,161421,-146,-0.04470155,-3797,-1.162546475
2023-11-30 18:05:55.989,63606,209489,161421,-7755,-2.374387125,-4128,-1.2638904
2023-11-30 18:05:55.989,63607,209465,161437,-6694,-2.04953545,-5196,-1.5908853
2023-11-30 18:05:56.021,63608,209451,161408,366,0.11206005,-4474,-1.36982695
2023-11-30 18:05:56.021,63609,209358,161376,-5459,-1.671409325,-4059,-1.242764325
2023-11-30 18:05:56.021,63610,209160,161298,-8595,-2.631574125,-5058,-1.54863315
2023-11-30 18:05:56.021,63611,208807,161148,-871,-0.266678425,-4728,-1.4475954
2023-11-30 18:05:56.021,63612,208312,160950,-2788,-0.8536159,-3714,-1.13713395
2023-11-30 18:05:56.021,63613,207684,160713,-9134,-2.79660245,-4477,-1.370745475
2023-11-30 18:05:56.051,63614,206985,160484,-3537,-1.082940975,-4942,-1.51311685
2023-11-30 18:05:56.051,63615,206371,160296,-416,-0.1273688,-3846,-1.17754905
2023-11-30 18:05:56.051,63616,205938,160141,-7935,-2.429498625,-4051,-1.240314925
2023-11-30 18:05:56.051,63617,205519,160019,-6647,-2.035145225,-5009,-1.533630575
2023-11-30 18:05:56.051,63618,205147,159889,823,0.251982025,-4156,-1.2724633
2023-11-30 18:05:56.081,63619,204796,159770,-5240,-1.604357,-3630,-1.11141525
2023-11-30 18:05:56.081,63620,204516,159683,-8858,-2.71209815,-4713,-1.443002775
2023-11-30 18:05:56.081,63621,204290,159616,-506,-0.15492455,-4574,-1.40044445
2023-11-30 18:05:56.081,63622,204093,159542,-2237,-0.684913475,-3573,-1.093963275
2023-11-30 18:05:56.081,63623,203915,159493,-9305,-2.848958375,-4356,-1.3336983
2023-11-30 18:05:56.081,63624,203775,159449,-3760,-1.151218,-5011,-1.534242925
2023-11-30 18:05:56.081,63625,203673,159397,-131,-0.040108925,-3988,-1.2210259
2023-11-30 18:05:56.112,63626,203572,159384,-7867,-2.408678725,-4131,-1.264808925
2023-11-30 18:05:56.112,63627,203496,159371,-7023,-2.150267025,-5158,-1.57925065
2023-11-30 18:05:56.112,63628,203453,159343,406,0.12430705,-4443,-1.360335525
2023-11-30 18:05:56.112,63629,203416,159358,-5289,-1.619359575,-3943,-1.207248025
2023-11-30 18:05:56.112,63630,203395,159367,-8620,-2.6392285,-5003,-1.531793525
2023-11-30 18:05:56.112,63631,203394,159348,-1182,-0.36189885,-4847,-1.484030225
2023-11-30 18:05:56.143,63632,203408,159376,-2170,-0.66439975,-3831,-1.172956425
2023-11-30 18:05:56.143,63633,203416,159367,-8679,-2.657292825,-4590,-1.40534325
2023-11-30 18:05:56.143,63634,203442,159375,-3788,-1.1597909,-5140,-1.5737395
2023-11-30 18:05:56.143,63635,203499,159393,354,0.10838595,-3927,-1.202349225
2023-11-30 18:05:56.143,63636,203515,159412,-7074,-2.16588195,-3986,-1.22041355
2023-11-30 18:05:56.143,63637,203546,159412,-6636,-2.0317773,-5044,-1.5443467
2023-11-30 18:05:56.143,63638,203590,159435,960,0.293928,-4233,-1.296038775
2023-11-30 18:05:56.143,63639,203610,159448,-4526,-1.38574805,-3617,-1.107434975
2023-11-30 18:05:56.174,63640,203643,159448,-8664,-2.6527002,-4801,-1.469946175
2023-11-30 18:05:56.174,63641,203646,159463,-683,-0.209117525,-4819,-1.475457325
2023-11-30 18:05:56.174,63642,203685,159472,-1883,-0.576527525,-3806,-1.16530205
2023-11-30 18:05:56.174,63643,203699,159474,-8624,-2.6404532,-4565,-1.397688875
2023-11-30 18:05:56.174,63644,203693,159470,-3708,-1.1352969,-5241,-1.604663175
2023-11-30 18:05:56.174,63645,203703,159476,272,0.0832796,-4150,-1.27062625
2023-11-30 18:05:56.174,63646,203703,159469,-7083,-2.168637525,-4157,-1.272769475
2023-11-30 18:05:56.204,63647,203696,159462,-7091,-2.171086925,-5150,-1.57680125
2023-11-30 18:05:56.204,63648,203673,159461,416,0.1273688,-4440,-1.359417
2023-11-30 18:05:56.204,63649,203673,159456,-4306,-1.31838955,-3777,-1.156422975
2023-11-30 18:05:56.204,63650,203632,159454,-8606,-2.63494205,-4743,-1.452188025
2023-11-30 18:05:56.204,63651,203624,159432,-1459,-0.446709325,-4655,-1.425244625
2023-11-30 18:05:56.235,63652,203595,159433,-1291,-0.395271925,-3508,-1.0740619
2023-11-30 18:05:56.235,63653,203588,159425,-8435,-2.582586125,-4076,-1.2479693
2023-11-30 18:05:56.235,63654,203578,159421,-4615,-1.412997625,-4686,-1.43473605
2023-11-30 18:05:56.266,63655,203553,159427,190,0.05817325,-3553,-1.087839775
2023-11-30 18:05:56.266,63656,203549,159425,-6913,-2.116587775,-3560,-1.089983
2023-11-30 18:05:56.266,63657,203565,159409,-7261,-2.223136675,-4688,-1.4353484
2023-11-30 18:05:56.266,63658,203578,159420,79,0.024187825,-4064,-1.2442952
2023-11-30 18:05:56.266,63659,203604,159410,-4512,-1.3814616,-3453,-1.057222275
2023-11-30 18:05:56.266,63660,203625,159431,-8748,-2.6784189,-4521,-1.384217175
2023-11-30 18:05:56.296,63661,203677,159463,-1744,-0.5339692,-4530,-1.38697275
2023-11-30 18:05:56.296,63662,203724,159469,-1666,-0.51008755,-3460,-1.0593655
2023-11-30 18:05:56.296,63663,203774,159480,-8387,-2.567889725,-4107,-1.257460725
2023-11-30 18:05:56.296,63664,203814,159493,-4492,-1.3753381,-4879,-1.493827825
2023-11-30 18:05:56.296,63665,203881,159522,225,0.068889375,-3867,-1.183978725
2023-11-30 18:05:56.296,63666,203948,159531,-6650,-2.03606375,-3770,-1.15427975
2023-11-30 18:05:56.327,63667,203999,159562,-7143,-2.187008025,-4851,-1.485254925
2023-11-30 18:05:56.327,63668,204049,159576,519,0.158904825,-4298,-1.31594015
2023-11-30 18:05:56.327,63669,204108,159585,-3935,-1.204798625,-3513,-1.075592775
2023-11-30 18:05:56.327,63670,204146,159613,-8625,-2.640759375,-4469,-1.368296075
2023-11-30 18:05:56.327,63671,204183,159600,-1761,-0.539174175,-4660,-1.4267755
2023-11-30 18:05:56.327,63672,204208,159613,-1176,-0.3600618,-3646,-1.11631405
2023-11-30 18:05:56.327,63673,204228,159630,-8273,-2.532985775,-4202,-1.28654735
2023-11-30 18:05:56.358,63674,204239,159631,-5261,-1.610786675,-4999,-1.530568825
2023-11-30 18:05:56.358,63675,204247,159629,309,0.094608075,-4089,-1.251949575
2023-11-30 18:05:56.358,63676,204256,159613,-6441,-1.972073175,-4020,-1.2308235
2023-11-30 18:05:56.358,63677,204274,159627,-7713,-2.361527775,-5056,-1.5480208
2023-11-30 18:05:56.358,63678,204271,159622,-68,-0.0208199,-4495,-1.376256625
2023-11-30 18:05:56.358,63679,204293,159615,-3807,-1.165608225,-3732,-1.1426451
2023-11-30 18:05:56.358,63680,204299,159641,-8640,-2.645352,-4635,-1.419121125
2023-11-30 18:05:56.389,63681,204309,159638,-1901,-0.582038675,-4749,-1.454025075
2023-11-30 18:05:56.389,63682,204310,159633,-1219,-0.373227325,-3668,-1.1230499
2023-11-30 18:05:56.389,63683,204326,159652,-8335,-2.551968625,-4127,-1.263584225
2023-11-30 18:05:56.389,63684,204345,159636,-4791,-1.466884425,-4816,-1.4745388
2023-11-30 18:05:56.389,63685,204358,159648,895,0.274026625,-3763,-1.152136525
2023-11-30 18:05:56.419,63686,204374,159664,-6111,-1.871035425,-3590,-1.09916825
2023-11-30 18:05:56.419,63687,204394,159659,-7445,-2.279472875,-4709,-1.441778075
2023-11-30 18:05:56.419,63688,204419,159663,744,0.2277942,-4271,-1.307673425
2023-11-30 18:05:56.419,63689,204459,159666,-3237,-0.991088475,-3488,-1.0679384
2023-11-30 18:05:56.419,63690,204498,159684,-8646,-2.64718905,-4468,-1.3679899
2023-11-30 18:05:56.419,63691,204545,159683,-1543,-0.472428025,-4821,-1.476069675
2023-11-30 18:05:56.419,63692,204558,159708,-799,-0.244633825,-3791,-1.160709425
2023-11-30 18:05:56.450,63693,204642,159729,-8074,-2.47205695,-4204,-1.2871597
2023-11-30 18:05:56.450,63694,204678,159746,-4921,-1.506687175,-5049,-1.545877575
2023-11-30 18:05:56.450,63695,204746,159761,670,0.20513725,-4134,-1.26572745
2023-11-30 18:05:56.450,63696,204795,159785,-6068,-1.8578699,-3863,-1.182754025
2023-11-30 18:05:56.450,63697,204853,159802,-7723,-2.364589525,-4846,-1.48372405
2023-11-30 18:05:56.450,63698,204921,159828,30,0.00918525,-4366,-1.33676005
2023-11-30 18:05:56.481,63699,204974,159848,-3249,-0.994762575,-3575,-1.094575625
2023-11-30 18:05:56.481,63700,205033,159867,-8524,-2.6098357,-4499,-1.377481325
2023-11-30 18:05:56.481,63701,205120,159889,-2169,-0.664093575,-4672,-1.4304496
2023-11-30 18:05:56.481,63702,205181,159911,-323,-0.098894525,-3454,-1.05752845
2023-11-30 18:05:56.512,63703,205245,159926,-7886,-2.41449605,-3821,-1.169894675
2023-11-30 18:05:56.512,63704,205289,159931,-5258,-1.60986815,-4650,-1.42371375
2023-11-30 18:05:56.512,63705,205355,159944,881,0.269740175,-3609,-1.104985575
2023-11-30 18:05:56.512,63706,205419,159986,-5940,-1.8186795,-3295,-1.008846625
2023-11-30 18:05:56.512,63707,205466,159993,-7823,-2.395207025,-4406,-1.34900705
2023-11-30 18:05:56.512,63708,205523,160008,305,0.093383375,-4009,-1.227455575
2023-11-30 18:05:56.512,63709,205579,160021,-3242,-0.99261935,-3226,-0.98772055
2023-11-30 18:05:56.560,63710,205625,160038,-8704,-2.6649472,-4220,-1.2920585
2023-11-30 18:05:56.560,63711,205682,160046,-2097,-0.642048975,-4562,-1.39677035
2023-11-30 18:05:56.560,63712,205722,160060,-623,-0.190747025,-3481,-1.065795175
2023-11-30 18:05:56.560,63713,205791,160075,-8038,-2.46103465,-3875,-1.186428125
2023-11-30 18:05:56.560,63714,205811,160088,-5539,-1.695903325,-4797,-1.468721475
2023-11-30 18:05:56.560,63715,205851,160087,805,0.246470875,-3925,-1.201736875
2023-11-30 18:05:56.595,63716,205895,160129,-5515,-1.688555125,-3595,-1.100699125
2023-11-30 18:05:56.595,63717,205948,160130,-7977,-2.442357975,-4646,-1.42248905
2023-11-30 18:05:56.595,63718,205988,160116,-392,-0.1200206,-4262,-1.30491785
2023-11-30 18:05:56.595,63719,206009,160123,-2622,-0.80279085,-3310,-1.01343925
2023-11-30 18:05:56.595,63720,206051,160125,-8622,-2.63984085,-4144,-1.2687892
2023-11-30 18:05:56.595,63721,206087,160149,-3162,-0.96812535,-4501,-1.378093675
2023-11-30 18:05:56.595,63722,206098,160148,-744,-0.2277942,-3393,-1.038851775
2023-11-30 18:05:56.595,63723,206129,160143,-8042,-2.46225935,-3774,-1.15550445
2023-11-30 18:05:56.595,63724,206142,160145,-6120,-1.873791,-4744,-1.4524942
2023-11-30 18:05:56.626,63725,206154,160139,243,0.074400525,-3871,-1.185203425
2023-11-30 18:05:56.626,63726,206148,160149,-5912,-1.8101066,-3560,-1.089983
2023-11-30 18:05:56.626,63727,206168,160142,-8295,-2.539721625,-4647,-1.422795225
2023-11-30 18:05:56.626,63728,206171,160143,-427,-0.130736725,-4267,-1.306448725
2023-11-30 18:05:56.626,63729,206177,160134,-3041,-0.931078175,-3365,-1.030278875
2023-11-30 18:05:56.626,63730,206158,160142,-8794,-2.69250295,-4281,-1.310735175
2023-11-30 18:05:56.626,63731,206136,160139,-2898,-0.88729515,-4716,-1.4439213
2023-11-30 18:05:56.657,63732,206130,160142,-635,-0.194421125,-3582,-1.09671885
2023-11-30 18:05:56.657,63733,206123,160139,-7662,-2.34591285,-3812,-1.1671391
2023-11-30 18:05:56.657,63734,206093,160120,-5815,-1.780407625,-4793,-1.467496775
2023-11-30 18:05:56.657,63735,206088,160121,714,0.21860895,-4000,-1.2247
2023-11-30 18:05:56.657,63736,206063,160112,-5511,-1.687330425,-3515,-1.076205125
2023-11-30 18:05:56.657,63737,206042,160115,-8199,-2.510328825,-4576,-1.4010568
2023-11-30 18:05:56.657,63738,206014,160093,-296,-0.0906278,-4494,-1.37595045
2023-11-30 18:05:56.657,63739,206022,160094,-2448,-0.7495164,-3711,-1.136215425
2023-11-30 18:05:56.657,63740,206000,160108,-8639,-2.645045825,-4575,-1.400750625
2023-11-30 18:05:56.688,63741,206017,160085,-3181,-0.973942675,-5073,-1.553225775
2023-11-30 18:05:56.688,63742,206023,160090,-34,-0.01040995,-4024,-1.2320482
2023-11-30 18:05:56.688,63743,206009,160099,-7532,-2.3061101,-4258,-1.30369315
2023-11-30 18:05:56.688,63744,206036,160087,-6386,-1.95523355,-5166,-1.58170005
2023-11-30 18:05:56.688,63745,206044,160097,415,0.127062625,-4292,-1.3141031
2023-11-30 18:05:56.688,63746,206054,160114,-5245,-1.605887875,-3810,-1.16652675
2023-11-30 18:05:56.688,63747,206091,160108,-8307,-2.543395725,-4821,-1.476069675
2023-11-30 18:05:56.719,63748,206123,160127,-844,-0.2584117,-4571,-1.399525925
2023-11-30 18:05:56.719,63749,206172,160138,-2669,-0.817181075,-3627,-1.110496725
2023-11-30 18:05:56.719,63750,206216,160158,-8688,-2.6600484,-4366,-1.33676005
2023-11-30 18:05:56.719,63751,206265,160170,-3114,-0.95342895,-4769,-1.460148575
2023-11-30 18:05:56.719,63752,206326,160195,97,0.029698975,-3646,-1.11631405
2023-11-30 18:05:56.719,63753,206365,160197,-7346,-2.24916155,-3856,-1.1806108
2023-11-30 18:05:56.749,63754,206422,160219,-6056,-1.8541958,-4842,-1.48249935
2023-11-30 18:05:56.749,63755,206471,160245,1174,0.35944945,-4016,-1.2295988
2023-11-30 18:05:56.749,63756,206506,160263,-4565,-1.397688875,-3487,-1.067632225
2023-11-30 18:05:56.749,63757,206555,160284,-8177,-2.503592975,-4573,-1.400138275
2023-11-30 18:05:56.749,63758,206622,160297,-249,-0.076237575,-4459,-1.365234325
2023-11-30 18:05:56.749,63759,206668,160323,-2036,-0.6233723,-3460,-1.0593655
2023-11-30 18:05:56.749,63760,206727,160335,-8420,-2.5779935,-4196,-1.2847103
2023-11-30 18:05:56.749,63761,206765,160352,-3123,-0.956184525,-4808,-1.4720894
2023-11-30 18:05:56.786,63762,206826,160382,18,0.00551115,-3802,-1.16407735
2023-11-30 18:05:56.786,63763,206874,160392,-7217,-2.209664975,-3948,-1.2087789
2023-11-30 18:05:56.786,63764,206930,160398,-6353,-1.945129775,-4957,-1.517709475
2023-11-30 18:05:56.786,63765,206945,160424,603,0.184623525,-4279,-1.310122825
2023-11-30 18:05:56.786,63766,206994,160438,-4921,-1.506687175,-3786,-1.15917855
2023-11-30 18:05:56.786,63767,207051,160434,-8666,-2.65331255,-4765,-1.458923875
2023-11-30 18:05:56.810,63768,207086,160465,-1161,-0.355469175,-4518,-1.38329865
2023-11-30 18:05:56.810,63769,207112,160466,-2238,-0.68521965,-3426,-1.04895555
2023-11-30 18:05:56.810,63770,207141,160483,-9468,-2.8988649,-4101,-1.255623675
2023-11-30 18:05:56.810,63771,207188,160479,-4347,-1.330942725,-4600,-1.408405
2023-11-30 18:05:56.810,63772,207213,160487,448,0.1371664,-3380,-1.0348715
2023-11-30 18:05:56.841,63773,207267,160505,-6734,-2.06178245,-3391,-1.038239425
2023-11-30 18:05:56.841,63774,207309,160511,-5772,-1.7672421,-4427,-1.355436725
2023-11-30 18:05:56.841,63775,207363,160529,1283,0.392822525,-3742,-1.14570685
2023-11-30 18:05:56.841,63776,207394,160549,-4169,-1.276443575,-3226,-0.98772055
2023-11-30 18:05:56.841,63777,207450,160564,-8192,-2.5081856,-4317,-1.321757475
2023-11-30 18:05:56.841,63778,207492,160569,-749,-0.229325075,-4274,-1.30859195
2023-11-30 18:05:56.841,63779,207543,160595,-1865,-0.571016375,-3328,-1.0189504
2023-11-30 18:05:56.871,63780,207592,160608,-8387,-2.567889725,-4060,-1.2430705
2023-11-30 18:05:56.871,63781,207637,160631,-3951,-1.209697425,-4687,-1.435042225
2023-11-30 18:05:56.871,63782,207681,160647,447,0.136860225,-3660,-1.1206005
2023-11-30 18:05:56.871,63783,207730,160645,-6665,-2.040656375,-3780,-1.1573415
2023-11-30 18:05:56.871,63784,207797,160658,-6824,-2.0893382,-4922,-1.50699335
2023-11-30 18:05:56.871,63785,207830,160689,460,0.1408405,-4336,-1.3275748
2023-11-30 18:05:56.912,63786,207901,160715,-3957,-1.211534475,-3815,-1.168057625
2023-11-30 18:05:56.912,63787,207926,160713,-8466,-2.59207755,-5037,-1.542203475
2023-11-30 18:05:56.912,63788,207966,160738,-1705,-0.522028375,-5092,-1.5590431
2023-11-30 18:05:56.912,63789,208009,160725,-1716,-0.5253963,-3835,-1.174181125
2023-11-30 18:05:56.912,63790,208041,160738,-8506,-2.60432455,-4139,-1.267258325
2023-11-30 18:05:56.943,63791,208059,160751,-4767,-1.459536225,-4465,-1.367071375
2023-11-30 18:05:56.943,63792,208102,160773,-151,-0.046232425,-3184,-0.9748612
2023-11-30 18:05:56.943,63793,208120,160784,-6839,-2.093930825,-3093,-0.946999275
2023-11-30 18:05:56.943,63794,208160,160780,-7141,-2.186395675,-4144,-1.2687892
2023-11-30 18:05:56.943,63795,208180,160803,71,0.021738425,-3622,-1.10896585
2023-11-30 18:05:56.943,63796,208215,160803,-4403,-1.348088525,-3193,-0.977616775
2023-11-30 18:05:56.974,63797,208249,160819,-8512,-2.6061616,-4443,-1.360335525
2023-11-30 18:05:56.974,63798,208277,160825,-1583,-0.484675025,-4633,-1.418508775
2023-11-30 18:05:56.974,63799,208321,160838,-1649,-0.504882575,-3556,-1.0887583
2023-11-30 18:05:56.974,63800,208375,160856,-8211,-2.514002925,-4002,-1.22531235
2023-11-30 18:05:56.974,63801,208401,160860,-4499,-1.377481325,-4620,-1.4145285
2023-11-30 18:05:56.974,63802,208446,160869,190,0.05817325,-3569,-1.092738575
2023-11-30 18:05:57.004,63803,208487,160895,-6655,-2.037594625,-3471,-1.062733425
2023-11-30 18:05:57.004,63804,208516,160892,-7343,-2.248243025,-4639,-1.420345825
2023-11-30 18:05:57.004,63805,208519,160892,302,0.09246485,-4297,-1.315633975
2023-11-30 18:05:57.004,63806,208479,160863,-3909,-1.196838075,-3693,-1.130704275
2023-11-30 18:05:57.004,63807,208371,160826,-8711,-2.667090425,-4670,-1.42983725
2023-11-30 18:05:57.004,63808,208133,160734,-2004,-0.6135747,-4850,-1.48494875
2023-11-30 18:05:57.004,63809,207797,160594,-1128,-0.3453654,-3863,-1.182754025
2023-11-30 18:05:57.035,63810,207299,160413,-8419,-2.577687325,-4368,-1.3373724
2023-11-30 18:05:57.035,63811,206718,160208,-5421,-1.659774675,-5071,-1.552613425
2023-11-30 18:05:57.035,63812,206165,160023,120,0.036741,-4096,-1.2540928
2023-11-30 18:05:57.035,63813,205730,159881,-6650,-2.03606375,-3948,-1.2087789
2023-11-30 18:05:57.035,63814,205302,159724,-7729,-2.366426575,-4888,-1.4965834
2023-11-30 18:05:57.035,63815,204943,159618,-79,-0.024187825,-4302,-1.31716485
2023-11-30 18:05:57.035,63816,204584,159496,-4252,-1.3018561,-3579,-1.095800325
2023-11-30 18:05:57.066,63817,204274,159375,-8994,-2.75373795,-4519,-1.383604825
2023-11-30 18:05:57.066,63818,204013,159286,-1813,-0.555095275,-4678,-1.43228665
2023-11-30 18:05:57.066,63819,203801,159218,-1182,-0.36189885,-3643,-1.115395525
2023-11-30 18:05:57.066,63820,203575,159144,-8657,-2.650556975,-4134,-1.26572745
2023-11-30 18:05:57.066,63821,203397,159097,-5069,-1.552001075,-4891,-1.497501925
2023-11-30 18:05:57.097,63822,203233,159048,830,0.25412525,-3894,-1.19224545
2023-11-30 18:05:57.097,63823,203098,159009,-6443,-1.972685525,-3708,-1.1352969
2023-11-30 18:05:57.097,63824,203007,158975,-7764,-2.3771427,-4826,-1.47760055
2023-11-30 18:05:57.097,63825,202941,158960,523,0.160129525,-4406,-1.34900705
2023-11-30 18:05:57.097,63826,202868,158940,-3642,-1.11508935,-3593,-1.100086775
2023-11-30 18:05:57.097,63827,202865,158940,-8967,-2.745471225,-4556,-1.3949333
2023-11-30 18:05:57.097,63828,202842,158938,-2221,-0.680014675,-4931,-1.509748925
2023-11-30 18:05:57.128,63829,202865,158956,-1163,-0.356081525,-3934,-1.20449245
2023-11-30 18:05:57.128,63830,202857,158963,-8223,-2.517677025,-4367,-1.337066225
2023-11-30 18:05:57.128,63831,202908,158973,-5146,-1.57557655,-5177,-1.585067975
2023-11-30 18:05:57.128,63832,202939,159000,537,0.164415975,-4248,-1.3006314
2023-11-30 18:05:57.128,63833,202973,159007,-5974,-1.82908945,-4067,-1.245213725
2023-11-30 18:05:57.128,63834,203037,159019,-7499,-2.296006325,-5099,-1.561186325
2023-11-30 18:05:57.160,63835,203067,159029,380,0.1163465,-4525,-1.385441875
2023-11-30 18:05:57.160,63836,203103,159059,-2996,-0.9173003,-3661,-1.120906675
2023-11-30 18:05:57.160,63837,203167,159076,-8534,-2.61289745,-4644,-1.4218767
2023-11-30 18:05:57.160,63838,203195,159081,-1966,-0.60194005,-4873,-1.491990775
2023-11-30 18:05:57.160,63839,203224,159096,-363,-0.111141525,-3637,-1.113558475
2023-11-30 18:05:57.190,63840,203245,159102,-7860,-2.4065355,-4021,-1.231129675
2023-11-30 18:05:57.190,63841,203289,159116,-5074,-1.55353195,-4891,-1.497501925
2023-11-30 18:05:57.190,63842,203298,159118,815,0.249532625,-3886,-1.18979605
2023-11-30 18:05:57.190,63843,203305,159122,-5983,-1.831845025,-3617,-1.107434975
2023-11-30 18:05:57.190,63844,203310,159130,-7691,-2.354791925,-4784,-1.4647412
2023-11-30 18:05:57.190,63845,203309,159124,83,0.025412525,-4456,-1.3643158
2023-11-30 18:05:57.190,63846,203295,159129,-3171,-0.970880925,-3660,-1.1206005
2023-11-30 18:05:57.221,63847,203300,159131,-8643,-2.646270525,-4564,-1.3973827
2023-11-30 18:05:57.221,63848,203282,159123,-2517,-0.770642475,-4850,-1.48494875
2023-11-30 18:05:57.221,63849,203253,159115,-276,-0.0845043,-3712,-1.1365216
2023-11-30 18:05:57.221,63850,203227,159115,-7629,-2.335809075,-3980,-1.2185765
2023-11-30 18:05:57.221,63851,203215,159119,-5690,-1.74213575,-4728,-1.4475954
2023-11-30 18:05:57.221,63852,203200,159117,663,0.202994025,-3696,-1.1316228
2023-11-30 18:05:57.251,63853,203197,159104,-5329,-1.631606575,-3315,-1.014970125
2023-11-30 18:05:57.251,63854,203195,159127,-8057,-2.466851975,-4416,-1.3520688
2023-11-30 18:05:57.251,63855,203195,159125,-568,-0.1739074,-4088,-1.2516434
2023-11-30 18:05:57.251,63856,203218,159137,-2839,-0.869230825,-3206,-0.98159705
2023-11-30 18:05:57.251,63857,203249,159139,-8778,-2.68760415,-4088,-1.2516434
2023-11-30 18:05:57.251,63858,203285,159161,-3406,-1.04283205,-4447,-1.361560225
2023-11-30 18:05:57.251,63859,203337,159170,-834,-0.25534995,-3377,-1.033952975
2023-11-30 18:05:57.251,63860,203380,159185,-7887,-2.414802225,-3779,-1.157035325
2023-11-30 18:05:57.282,63861,203420,159196,-6043,-1.850215525,-4737,-1.450350975
2023-11-30 18:05:57.282,63862,203468,159221,301,0.092158675,-3889,-1.190714575
2023-11-30 18:05:57.282,63863,203504,159231,-5579,-1.708150325,-3565,-1.091513875
2023-11-30 18:05:57.282,63864,203538,159247,-7975,-2.441745625,-4668,-1.4292249
2023-11-30 18:05:57.282,63865,203544,159239,-211,-0.064602925,-4362,-1.33553535
2023-11-30 18:05:57.282,63866,203589,159257,-2802,-0.85790235,-3374,-1.03303445
2023-11-30 18:05:57.282,63867,203603,159257,-8459,-2.589934325,-4156,-1.2724633
2023-11-30 18:05:57.313,63868,203618,159255,-2916,-0.8928063,-4627,-1.416671725
2023-11-30 18:05:57.313,63869,203610,159248,-281,-0.086035175,-3549,-1.086615075
2023-11-30 18:05:57.313,63870,203602,159248,-7317,-2.240282475,-3749,-1.147850075
2023-11-30 18:05:57.313,63871,203620,159238,-6102,-1.86827985,-4746,-1.45310655
2023-11-30 18:05:57.313,63872,203619,159243,694,0.21248545,-4054,-1.24123345
2023-11-30 18:05:57.343,63873,203635,159237,-4870,-1.49107225,-3671,-1.123968425
2023-11-30 18:05:57.343,63874,203619,159239,-8189,-2.507267075,-4788,-1.4659659
2023-11-30 18:05:57.343,63875,203647,159246,-637,-0.195033475,-4718,-1.44453365
2023-11-30 18:05:57.343,63876,203658,159248,-2271,-0.695323425,-3873,-1.185815775
2023-11-30 18:05:57.343,63877,203657,159255,-8613,-2.637085275,-4619,-1.414222325
2023-11-30 18:05:57.343,63878,203678,159248,-3457,-1.058446975,-5044,-1.5443467
2023-11-30 18:05:57.343,63879,203701,159261,-273,-0.083585775,-3953,-1.210309775
2023-11-30 18:05:57.374,63880,203729,159266,-7332,-2.2448751,-4099,-1.255011325
2023-11-30 18:05:57.374,63881,203739,159277,-6043,-1.850215525,-4919,-1.506074825
2023-11-30 18:05:57.374,63882,203769,159280,684,0.2094237,-4016,-1.2295988
2023-11-30 18:05:57.374,63883,203796,159302,-5063,-1.550164025,-3519,-1.077429825
2023-11-30 18:05:57.374,63884,203829,159323,-8047,-2.463790225,-4541,-1.390340675
2023-11-30 18:05:57.374,63885,203878,159316,-186,-0.05694855,-4353,-1.332779775
2023-11-30 18:05:57.404,63886,203908,159330,-1930,-0.59091775,-3406,-1.04283205
2023-11-30 18:05:57.404,63887,203932,159336,-8408,-2.5743194,-4147,-1.269707725
2023-11-30 18:05:57.404,63888,203982,159358,-2897,-0.886988975,-4687,-1.435042225
2023-11-30 18:05:57.404,63889,204031,159373,523,0.160129525,-3598,-1.10161765
2023-11-30 18:05:57.404,63890,204088,159411,-7008,-2.1456744,-3675,-1.125193125
2023-11-30 18:05:57.435,63891,204140,159418,-6068,-1.8578699,-4681,-1.433205175
2023-11-30 18:05:57.435,63892,204205,159436,933,0.285661275,-4001,-1.225006175
2023-11-30 18:05:57.435,63893,204264,159469,-4712,-1.4426966,-3490,-1.06855075
2023-11-30 18:05:57.435,63894,204308,159487,-8200,-2.510635,-4561,-1.396464175
2023-11-30 18:05:57.435,63895,204371,159494,-715,-0.218915125,-4530,-1.38697275
2023-11-30 18:05:57.435,63896,204429,159520,-2193,-0.671441775,-3595,-1.100699125
2023-11-30 18:05:57.435,63897,204509,159554,-8238,-2.52226965,-4258,-1.30369315
2023-11-30 18:05:57.465,63898,204572,159580,-3471,-1.062733425,-4734,-1.44943245
2023-11-30 18:05:57.465,63899,204634,159591,326,0.09981305,-3638,-1.11386465
2023-11-30 18:05:57.465,63900,204702,159613,-6889,-2.109239575,-3737,-1.144175975
2023-11-30 18:05:57.465,63901,204787,159644,-6330,-1.93808775,-4661,-1.427081675
2023-11-30 18:05:57.465,63902,204843,159662,1064,0.3257702,-3814,-1.16775145
2023-11-30 18:05:57.465,63903,204877,159672,-4185,-1.281342375,-3212,-0.9834341
2023-11-30 18:05:57.496,63904,204958,159690,-8173,-2.502368275,-4269,-1.307061075
2023-11-30 18:05:57.496,63905,205031,159703,-357,-0.109304475,-4140,-1.2675645
2023-11-30 18:05:57.496,63906,205073,159723,-1546,-0.47334655,-3061,-0.937201675
2023-11-30 18:05:57.496,63907,205122,159746,-8362,-2.56023535,-3741,-1.145400675
2023-11-30 18:05:57.496,63908,205189,159744,-3355,-1.027217125,-4364,-1.3361477
2023-11-30 18:05:57.538,63909,205226,159754,332,0.1016501,-3341,-1.022930675
2023-11-30 18:05:57.538,63910,205307,159786,-6915,-2.117200125,-3478,-1.06487665
2023-11-30 18:05:57.538,63911,205371,159786,-6696,-2.0501478,-4583,-1.403200025
2023-11-30 18:05:57.538,63912,205421,159810,542,0.16594685,-3996,-1.2234753
2023-11-30 18:05:57.538,63913,205449,159814,-4506,-1.37962455,-3471,-1.062733425
2023-11-30 18:05:57.538,63914,205492,159823,-8387,-2.567889725,-4468,-1.3679899
2023-11-30 18:05:57.568,63915,205532,159828,-1277,-0.390985475,-4387,-1.343189725
2023-11-30 18:05:57.568,63916,205565,159846,-1253,-0.383637275,-3324,-1.0177257
2023-11-30 18:05:57.568,63917,205596,159850,-8394,-2.57003295,-3923,-1.201124525
2023-11-30 18:05:57.568,63918,205628,159878,-4378,-1.34043415,-4508,-1.3802369
2023-11-30 18:05:57.568,63919,205667,159879,417,0.127674975,-3367,-1.030891225
2023-11-30 18:05:57.568,63920,205665,159886,-6634,-2.03116495,-3324,-1.0177257
2023-11-30 18:05:57.598,63921,205703,159890,-7238,-2.21609465,-4369,-1.337678575
2023-11-30 18:05:57.598,63922,205724,159898,164,0.0502127,-3706,-1.13468455
2023-11-30 18:05:57.598,63923,205761,159922,-4451,-1.362784925,-3095,-0.947611625
2023-11-30 18:05:57.598,63924,205773,159921,-8763,-2.683011525,-4167,-1.275831225
2023-11-30 18:05:57.598,63925,205804,159928,-1513,-0.463242775,-4196,-1.2847103
2023-11-30 18:05:57.598,63926,205840,159950,-1598,-0.48926765,-3203,-0.980678525
2023-11-30 18:05:57.598,63927,205856,159949,-8383,-2.566665025,-3905,-1.195613375
2023-11-30 18:05:57.629,63928,205893,159974,-4405,-1.348700875,-4663,-1.427694025
2023-11-30 18:05:57.629,63929,205915,159991,238,0.07286965,-3700,-1.1328475
2023-11-30 18:05:57.629,63930,205969,159986,-6621,-2.027184675,-3697,-1.131928975
2023-11-30 18:05:57.629,63931,206018,160009,-6893,-2.110464275,-4767,-1.459536225
2023-11-30 18:05:57.629,63932,206034,160025,693,0.212179275,-4166,-1.27552505
2023-11-30 18:05:57.629,63933,206071,160022,-4105,-1.256848375,-3407,-1.043138225
2023-11-30 18:05:57.629,63934,206106,160041,-8454,-2.58840345,-4397,-1.346251475
2023-11-30 18:05:57.661,63935,206151,160060,-1382,-0.42313385,-4561,-1.396464175
2023-11-30 18:05:57.661,63936,206196,160065,-1173,-0.359143275,-3995,-1.223169125
2023-11-30 18:05:57.661,63937,206233,160085,-8029,-2.458279075,-4067,-1.245213725
2023-11-30 18:05:57.661,63938,206265,160088,-4598,-1.40779265,-4150,-1.27062625
2023-11-30 18:05:57.661,63939,206306,160104,679,0.207892825,-4084,-1.2504187
2023-11-30 18:05:57.661,63940,206362,160120,-6121,-1.874097175,-4103,-1.256236025
2023-11-30 18:05:57.691,63941,206408,160151,-7226,-2.21242055,-4221,-1.292364675
2023-11-30 18:05:57.691,63942,206470,160156,252,0.0771561,-4190,-1.28287325
2023-11-30 18:05:57.691,63943,206519,160173,-3622,-1.10896585,-4144,-1.2687892
2023-11-30 18:05:57.691,63944,206552,160197,-8496,-2.6012628,-4252,-1.3018561
2023-11-30 18:05:57.691,63945,206575,160209,-1924,-0.5890807,-4278,-1.30981665
2023-11-30 18:05:57.691,63946,206652,160225,-1539,-0.471203325,-4191,-1.283179425
2023-11-30 18:05:57.691,63947,206714,160242,-8610,-2.63616675,-4242,-1.29879435
2023-11-30 18:05:57.722,63948,206760,160265,-5225,-1.599764375,-4307,-1.318695725
2023-11-30 18:05:57.722,63949,206814,160272,201,0.061541175,-4202,-1.28654735
2023-11-30 18:05:57.722,63950,206880,160295,-7206,-2.20629705,-4166,-1.27552505
2023-11-30 18:05:57.722,63951,206941,160324,-7874,-2.41082195,-4232,-1.2957326
2023-11-30 18:05:57.722,63952,206988,160345,663,0.202994025,-4151,-1.270932425
2023-11-30 18:05:57.722,63953,207050,160365,-2758,-0.84443065,-4049,-1.239702575
2023-11-30 18:05:57.753,63954,207127,160377,-7814,-2.39245145,-4103,-1.256236025
2023-11-30 18:05:57.753,63955,207166,160398,-986,-0.30188855,-4095,-1.253786625
2023-11-30 18:05:57.753,63956,207224,160413,-437,-0.133798475,-3978,-1.21796415
2023-11-30 18:05:57.753,63957,207267,160439,-7786,-2.38387855,-3998,-1.22408765
2023-11-30 18:05:57.753,63958,207321,160448,-4628,-1.4169779,-4050,-1.24000875
2023-11-30 18:05:57.782,63959,207374,160460,754,0.23085595,-3959,-1.212146825
2023-11-30 18:05:57.782,63960,207441,160498,-5939,-1.818373325,-3946,-1.20816655
2023-11-30 18:05:57.782,63961,207488,160511,-7273,-2.226810775,-4042,-1.23755935
2023-11-30 18:05:57.782,63962,207526,160522,303,0.092771025,-4009,-1.227455575
2023-11-30 18:05:57.782,63963,207609,160529,-3270,-1.00119225,-3969,-1.215208575
2023-11-30 18:05:57.782,63964,207651,160557,-8283,-2.536047525,-4097,-1.254398975
2023-11-30 18:05:57.782,63965,207714,160573,-1805,-0.552645875,-4164,-1.2749127
2023-11-30 18:05:57.811,63966,207766,160594,-287,-0.087872225,-4116,-1.2602163
2023-11-30 18:05:57.811,63967,207818,160604,-7750,-2.37285625,-4218,-1.29144615
2023-11-30 18:05:57.811,63968,207879,160622,-5062,-1.54985785,-4358,-1.33431065
2023-11-30 18:05:57.811,63969,207914,160644,957,0.293009475,-4310,-1.31961425
2023-11-30 18:05:57.811,63970,207984,160670,-5660,-1.7329505,-4284,-1.3116537
2023-11-30 18:05:57.811,63971,208023,160695,-7578,-2.32019415,-4343,-1.329718025
2023-11-30 18:05:57.845,63972,208100,160702,511,0.156455425,-4244,-1.2994067
2023-11-30 18:05:57.845,63973,208164,160732,-3048,-0.9332214,-4095,-1.253786625
2023-11-30 18:05:57.845,63974,208227,160764,-8608,-2.6355544,-4091,-1.252561925
2023-11-30 18:05:57.845,63975,208293,160771,-2119,-0.648784825,-4029,-1.233579075
2023-11-30 18:05:57.845,63976,208363,160810,-696,-0.2130978,-3861,-1.182141675
2023-11-30 18:05:57.845,63977,208438,160837,-7882,-2.41327135,-3841,-1.176018175
2023-11-30 18:05:57.845,63978,208503,160847,-5688,-1.7415234,-3857,-1.180916975
2023-11-30 18:05:57.845,63979,208580,160874,634,0.19411495,-3716,-1.1377463
2023-11-30 18:05:57.875,63980,208650,160905,-5603,-1.715498525,-3656,-1.1193758
2023-11-30 18:05:57.875,63981,208729,160938,-8024,-2.4567482,-3743,-1.146013025
2023-11-30 18:05:57.875,63982,208757,160946,-289,-0.088484575,-3721,-1.139277175
2023-11-30 18:05:57.875,63983,208832,160969,-2594,-0.79421795,-3679,-1.126417825
2023-11-30 18:05:57.875,63984,208880,160995,-8812,-2.6980141,-3805,-1.164995875
2023-11-30 18:05:57.875,63985,208920,161006,-3120,-0.955266,-3880,-1.187959
2023-11-30 18:05:57.875,63986,208946,161004,-637,-0.195033475,-3815,-1.168057625
2023-11-30 18:05:57.905,63987,208944,161004,-7983,-2.444195025,-3856,-1.1806108
2023-11-30 18:05:57.905,63988,208864,160973,-6157,-1.885119475,-3923,-1.201124525
2023-11-30 18:05:57.905,63989,208701,160918,184,0.0563362,-3822,-1.17020085
2023-11-30 18:05:57.905,63990,208416,160792,-5946,-1.82051655,-3779,-1.157035325
2023-11-30 18:05:57.905,63991,207997,160645,-8399,-2.571563825,-3876,-1.1867343
2023-11-30 18:05:57.936,63992,207440,160443,-612,-0.1873791,-3862,-1.18244785
2023-11-30 18:05:57.936,63993,206831,160223,-3047,-0.932915225,-3810,-1.16652675
2023-11-30 18:05:57.936,63994,206212,160023,-8890,-2.72189575,-3919,-1.199899825
2023-11-30 18:05:57.936,63995,205740,159861,-3238,-0.99139465,-3983,-1.219495025
2023-11-30 18:05:57.936,63996,205342,159733,-671,-0.205443425,-3912,-1.1977566
2023-11-30 18:05:57.936,63997,205007,159625,-7915,-2.423375125,-3967,-1.214596225
2023-11-30 18:05:57.936,63998,204708,159530,-6426,-1.96748055,-4084,-1.2504187
2023-11-30 18:05:57.966,63999,204406,159459,354,0.10838595,-4043,-1.237865525
2023-11-30 18:05:57.966,64000,204181,159374,-5684,-1.7402987,-4038,-1.23633465
2023-11-30 18:05:57.966,64001,203979,159318,-8483,-2.597282525,-4155,-1.272157125
2023-11-30 18:05:57.966,64002,203812,159262,-469,-0.143596075,-4156,-1.2724633
2023-11-30 18:05:57.966,64003,203675,159218,-2617,-0.801259975,-4106,-1.25715455
2023-11-30 18:05:57.966,64004,203578,159181,-9035,-2.766291125,-4212,-1.2896091
2023-11-30 18:05:57.997,64005,203475,159169,-3558,-1.08937065,-4284,-1.3116537
2023-11-30 18:05:57.997,64006,203426,159155,-94,-0.02878045,-4222,-1.29267085
2023-11-30 18:05:57.997,64007,203386,159144,-7596,-2.3257053,-4280,-1.310429
2023-11-30 18:05:57.997,64008,203366,159141,-6585,-2.016162375,-4399,-1.346863825
2023-11-30 18:05:57.997,64009,203379,159162,296,0.0906278,-4354,-1.33308595
2023-11-30 18:05:58.027,64010,203392,159157,-5287,-1.618747225,-4341,-1.329105675
2023-11-30 18:05:58.027,64011,203421,159176,-8269,-2.531761075,-4468,-1.3679899
2023-11-30 18:05:58.027,64012,203469,159194,-604,-0.1849297,-4478,-1.37105165
2023-11-30 18:05:58.027,64013,203531,159218,-2314,-0.70848895,-4413,-1.351150275
2023-11-30 18:05:58.027,64014,203594,159236,-8388,-2.5681959,-4496,-1.3765628
2023-11-30 18:05:58.027,64015,203640,159256,-2973,-0.910258275,-4548,-1.3924839
2023-11-30 18:05:58.027,64016,203693,159296,424,0.1298182,-4454,-1.36370345
2023-11-30 18:05:58.068,64017,203779,159319,-6950,-2.12791625,-4467,-1.367683725
2023-11-30 18:05:58.068,64018,203836,159325,-5893,-1.804289275,-4544,-1.3912592
2023-11-30 18:05:58.068,64019,203910,159339,1324,0.4053757,-4458,-1.36492815
2023-11-30 18:05:58.068,64020,203960,159372,-4449,-1.362172575,-4399,-1.346863825
2023-11-30 18:05:58.068,64021,204022,159380,-8034,-2.45980995,-4485,-1.373194875
2023-11-30 18:05:58.068,64022,204067,159398,-38,-0.01163465,-4467,-1.367683725
2023-11-30 18:05:58.098,64023,204108,159418,-1854,-0.56764845,-4368,-1.3373724
2023-11-30 18:05:58.098,64024,204145,159420,-8300,-2.5412525,-4418,-1.35268115
2023-11-30 18:05:58.098,64025,204174,159446,-3216,-0.9846588,-4455,-1.364009625
2023-11-30 18:05:58.098,64026,204182,159434,97,0.029698975,-4354,-1.33308595
2023-11-30 18:05:58.098,64027,204208,159451,-6970,-2.13403975,-4359,-1.334616825
2023-11-30 18:05:58.098,64028,204208,159451,-6263,-1.917574025,-4431,-1.356661425
2023-11-30 18:05:58.098,64029,204210,159447,744,0.2277942,-4341,-1.329105675
2023-11-30 18:05:58.098,64030,204188,159449,-4386,-1.34288355,-4275,-1.308898125
2023-11-30 18:05:58.129,64031,204205,159448,-8180,-2.5045115,-4345,-1.330330375
2023-11-30 18:05:58.129,64032,204212,159439,-732,-0.2241201,-4294,-1.31471545
2023-11-30 18:05:58.129,64033,204222,159451,-1429,-0.437524075,-4151,-1.270932425
2023-11-30 18:05:58.129,64034,204245,159448,-8162,-2.49900035,-4161,-1.273994175
2023-11-30 18:05:58.129,64035,204250,159459,-3235,-0.990476125,-4156,-1.2724633
2023-11-30 18:05:58.129,64036,204294,159460,660,0.2020755,-3990,-1.22163825
2023-11-30 18:05:58.129,64037,204326,159480,-6792,-2.0795406,-3921,-1.200512175
2023-11-30 18:05:58.160,64038,204375,159504,-6476,-1.9827893,-3941,-1.206635675
2023-11-30 18:05:58.160,64039,204430,159519,921,0.281987175,-3816,-1.1683638
2023-11-30 18:05:58.160,64040,204480,159535,-4568,-1.3986074,-3716,-1.1377463
2023-11-30 18:05:58.160,64041,204572,159562,-8357,-2.558704475,-3772,-1.1548921
2023-11-30 18:05:58.160,64042,204610,159586,-664,-0.2033002,-3744,-1.1463192
2023-11-30 18:05:58.190,64043,204667,159597,-1522,-0.46599835,-3651,-1.117844925
2023-11-30 18:05:58.190,64044,204713,159615,-8289,-2.537884575,-3724,-1.1401957
2023-11-30 18:05:58.190,64045,204722,159623,-3841,-1.176018175,-3797,-1.162546475
2023-11-30 18:05:58.220,64046,204743,159625,687,0.210342225,-3727,-1.141114225
2023-11-30 18:05:58.220,64047,204757,159615,-6530,-1.99932275,-3762,-1.15183035
2023-11-30 18:05:58.220,64048,204731,159624,-6858,-2.09974815,-3883,-1.188877525
2023-11-30 18:05:58.220,64049,204734,159624,486,0.14880105,-3846,-1.17754905
2023-11-30 18:05:58.220,64050,204742,159621,-3890,-1.19102075,-3808,-1.1659144
2023-11-30 18:05:58.220,64051,204724,159613,-8610,-2.63616675,-3906,-1.19591955
2023-11-30 18:05:58.251,64052,204712,159601,-1802,-0.55172735,-3899,-1.193776325
2023-11-30 18:05:58.251,64053,204678,159593,-1598,-0.48926765,-3794,-1.16162795
2023-11-30 18:05:58.251,64054,204673,159591,-8294,-2.53941545,-3835,-1.174181125
2023-11-30 18:05:58.251,64055,204663,159587,-4743,-1.452188025,-3878,-1.18734665
2023-11-30 18:05:58.251,64056,204643,159580,53,0.016227275,-3772,-1.1548921
2023-11-30 18:05:58.251,64057,204674,159589,-6682,-2.04586135,-3769,-1.153973575
2023-11-30 18:05:58.281,64058,204646,159586,-7105,-2.175373375,-3869,-1.184591075
2023-11-30 18:05:58.281,64059,204683,159570,274,0.08389195,-3817,-1.168669975
2023-11-30 18:05:58.281,64060,204668,159585,-4067,-1.245213725,-3765,-1.152748875
2023-11-30 18:05:58.281,64061,204682,159596,-8346,-2.55533655,-3868,-1.1842849
2023-11-30 18:05:58.281,64062,204687,159592,-1508,-0.4617119,-3887,-1.190102225
2023-11-30 18:05:58.281,64063,204697,159599,-1420,-0.4347685,-3804,-1.1646897
2023-11-30 18:05:58.281,64064,204740,159605,-7949,-2.433785075,-3867,-1.183978725
2023-11-30 18:05:58.311,64065,204767,159609,-4510,-1.38084925,-3943,-1.207248025
2023-11-30 18:05:58.311,64066,204780,159629,475,0.145433125,-3870,-1.18489725
2023-11-30 18:05:58.311,64067,204851,159626,-6161,-1.886344175,-3882,-1.18857135
2023-11-30 18:05:58.311,64068,204874,159637,-7065,-2.163126375,-3989,-1.221332075
2023-11-30 18:05:58.311,64069,204919,159660,805,0.246470875,-3960,-1.212453
2023-11-30 18:05:58.311,64070,204965,159680,-3452,-1.0569161,-3927,-1.202349225
2023-11-30 18:05:58.311,64071,205028,159697,-8481,-2.596670175,-4043,-1.237865525
2023-11-30 18:05:58.342,64072,205108,159734,-1724,-0.5278457,-4087,-1.251337225
2023-11-30 18:05:58.342,64073,205163,159748,-1039,-0.318115825,-4038,-1.23633465
2023-11-30 18:05:58.342,64074,205258,159779,-8044,-2.4628717,-4134,-1.26572745
2023-11-30 18:05:58.342,64075,205315,159809,-4695,-1.437491625,-4242,-1.29879435
2023-11-30 18:05:58.342,64076,205407,159825,398,0.12185765,-4182,-1.28042385
2023-11-30 18:05:58.373,64077,205453,159846,-6248,-1.9129814,-4189,-1.282567075
2023-11-30 18:05:58.373,64078,205539,159872,-7304,-2.2363022,-4293,-1.314409275
2023-11-30 18:05:58.373,64079,205618,159891,297,0.090933975,-4247,-1.300325225
2023-11-30 18:05:58.373,64080,205675,159928,-3516,-1.0765113,-4168,-1.2761374
2023-11-30 18:05:58.373,64081,205749,159938,-8498,-2.60187515,-4232,-1.2957326
2023-11-30 18:05:58.373,64082,205818,159961,-1564,-0.4788577,-4225,-1.293589375
2023-11-30 18:05:58.373,64083,205883,159985,-438,-0.13410465,-4100,-1.2553175
2023-11-30 18:05:58.404,64084,205953,160007,-7906,-2.42061955,-4104,-1.2565422
2023-11-30 18:05:58.404,64085,206010,160016,-4632,-1.4182026,-4133,-1.265421275
2023-11-30 18:05:58.404,64086,206066,160048,979,0.299745325,-4006,-1.22653705
2023-11-30 18:05:58.404,64087,206126,160072,-6041,-1.849603175,-3953,-1.210309775
2023-11-30 18:05:58.404,64088,206199,160093,-7449,-2.280697575,-4019,-1.230517325
2023-11-30 18:05:58.404,64089,206272,160110,570,0.17451975,-3962,-1.21306535
2023-11-30 18:05:58.434,64090,206306,160129,-3436,-1.0520173,-3884,-1.1891837
2023-11-30 18:05:58.434,64091,206380,160140,-8674,-2.65576195,-3961,-1.212759175
2023-11-30 18:05:58.434,64092,206425,160160,-1921,-0.588162175,-3982,-1.21918885
2023-11-30 18:05:58.434,64093,206451,160165,-614,-0.18799145,-3896,-1.1928578
2023-11-30 18:05:58.434,64094,206508,160188,-7804,-2.3893897,-3947,-1.208472725
2023-11-30 18:05:58.434,64095,206553,160192,-5112,-1.5651666,-4030,-1.23388525
2023-11-30 18:05:58.434,64096,206586,160212,884,0.2706587,-3956,-1.2112283
2023-11-30 18:05:58.434,64097,206630,160225,-5742,-1.75805685,-3955,-1.210922125
2023-11-30 18:05:58.475,64098,206675,160241,-7622,-2.33366585,-4071,-1.246438425
2023-11-30 18:05:58.475,64099,206705,160258,239,0.073175825,-4040,-1.236947
2023-11-30 18:05:58.475,64100,206759,160253,-2863,-0.876579025,-3959,-1.212146825
2023-11-30 18:05:58.475,64101,206788,160274,-8798,-2.69372765,-4025,-1.232354375
2023-11-30 18:05:58.475,64102,206812,160269,-2086,-0.63868105,-4028,-1.2332729
2023-11-30 18:05:58.475,64103,206843,160292,-654,-0.20023845,-3901,-1.194388675
2023-11-30 18:05:58.475,64104,206886,160306,-8089,-2.476649575,-3907,-1.196225725
2023-11-30 18:05:58.505,64105,206908,160312,-5227,-1.600376725,-3957,-1.211534475
2023-11-30 18:05:58.505,64106,206942,160316,919,0.281374825,-3857,-1.180916975
2023-11-30 18:05:58.505,64107,206966,160320,-5705,-1.746728375,-3828,-1.1720379
2023-11-30 18:05:58.505,64108,207002,160335,-7778,-2.38142915,-3929,-1.202961575
2023-11-30 18:05:58.505,64109,207021,160352,186,0.05694855,-3897,-1.193163975
2023-11-30 18:05:58.505,64110,207080,160361,-2678,-0.81993665,-3827,-1.171731725
2023-11-30 18:05:58.535,64111,207097,160344,-8670,-2.65453725,-3918,-1.19959365
2023-11-30 18:05:58.535,64112,207105,160379,-2649,-0.811057575,-3960,-1.212453
2023-11-30 18:05:58.535,64113,207156,160384,-211,-0.064602925,-3878,-1.18734665
2023-11-30 18:05:58.535,64114,207189,160385,-7689,-2.354179575,-3927,-1.202349225
2023-11-30 18:05:58.535,64115,207230,160425,-5886,-1.80214605,-4017,-1.229904975
2023-11-30 18:05:58.535,64116,207262,160427,465,0.142371375,-3941,-1.206635675
2023-11-30 18:05:58.535,64117,207303,160439,-5638,-1.72621465,-3915,-1.198675125
2023-11-30 18:05:58.535,64118,207363,160453,-8226,-2.51859555,-4011,-1.228067925
2023-11-30 18:05:58.566,64119,207397,160466,-716,-0.2192213,-3976,-1.2173518
2023-11-30 18:05:58.566,64120,207432,160476,-3347,-1.024767725,-3900,-1.1940825
2023-11-30 18:05:58.566,64121,207483,160500,-9675,-2.962243125,-3990,-1.22163825
2023-11-30 18:05:58.566,64122,207522,160514,-4263,-1.305224025,-4034,-1.23510995
2023-11-30 18:05:58.566,64123,207573,160524,-1271,-0.389148425,-3941,-1.206635675
2023-11-30 18:05:58.566,64124,207648,160543,-8555,-2.619327125,-3976,-1.2173518
2023-11-30 18:05:58.597,64125,207669,160560,-6517,-1.995342475,-4066,-1.24490755
2023-11-30 18:05:58.597,64126,207726,160565,383,0.117265025,-3989,-1.221332075
2023-11-30 18:05:58.597,64127,207756,160587,-4802,-1.47025235,-3953,-1.210309775
2023-11-30 18:05:58.597,64128,207801,160586,-7459,-2.283759325,-4052,-1.2406211
2023-11-30 18:05:58.597,64129,207855,160622,-58,-0.01775815,-4030,-1.23388525
2023-11-30 18:05:58.627,64130,207894,160631,-2262,-0.69256785,-3951,-1.209697425
2023-11-30 18:05:58.627,64131,207942,160645,-8467,-2.592383725,-4025,-1.232354375
2023-11-30 18:05:58.627,64132,207964,160662,-3201,-0.980066175,-4064,-1.2442952
2023-11-30 18:05:58.627,64133,208028,160677,91,0.027861925,-3979,-1.218270325
2023-11-30 18:05:58.627,64134,208065,160683,-7281,-2.229260175,-4022,-1.23143585
2023-11-30 18:05:58.627,64135,208125,160712,-6389,-1.956152075,-4130,-1.26450275
2023-11-30 18:05:58.657,64136,208149,160730,511,0.156455425,-4092,-1.2528681
2023-11-30 18:05:58.657,64137,208200,160727,-4918,-1.50576865,-4114,-1.25960395
2023-11-30 18:05:58.657,64138,208269,160748,-8305,-2.542783375,-4298,-1.31594015
2023-11-30 18:05:58.657,64139,208314,160758,-914,-0.27984395,-4382,-1.34165885
2023-11-30 18:05:58.657,64140,208359,160775,-2457,-0.752271975,-4405,-1.348700875
2023-11-30 18:05:58.657,64141,208427,160809,-8611,-2.636472925,-4580,-1.4022815
2023-11-30 18:05:58.687,64142,208475,160809,-3367,-1.030891225,-4713,-1.443002775
2023-11-30 18:05:58.687,64143,208543,160839,76,0.0232693,-4676,-1.4316743
2023-11-30 18:05:58.687,64144,208586,160851,-7294,-2.23324045,-4707,-1.441165725
2023-11-30 18:05:58.687,64145,208652,160861,-6300,-1.9289025,-4762,-1.45800535
2023-11-30 18:05:58.687,64146,208682,160875,886,0.27127105,-4634,-1.41881495
2023-11-30 18:05:58.717,64147,208728,160904,-4836,-1.4806623,-4518,-1.38329865
2023-11-30 18:05:58.717,64148,208791,160912,-8330,-2.55043775,-4530,-1.38697275
2023-11-30 18:05:58.717,64149,208811,160928,-312,-0.0955266,-4425,-1.354824375
2023-11-30 18:05:58.717,64150,208868,160946,-1939,-0.593673325,-4239,-1.297875825
2023-11-30 18:05:58.717,64151,208941,160968,-8574,-2.62514445,-4206,-1.28777205
2023-11-30 18:05:58.717,64152,208993,160986,-3281,-1.004560175,-4165,-1.275218875
2023-11-30 18:05:58.749,64153,209047,161001,92,0.0281681,-3993,-1.222556775
2023-11-30 18:05:58.749,64154,209109,161023,-7338,-2.24671215,-3943,-1.207248025
2023-11-30 18:05:58.749,64155,209154,161028,-6624,-2.0281032,-4006,-1.22653705
2023-11-30 18:05:58.749,64156,209224,161053,590,0.18064325,-3966,-1.21429005
2023-11-30 18:05:58.749,64157,209275,161072,-4892,-1.4978081,-3979,-1.218270325
2023-11-30 18:05:58.749,64158,209316,161084,-8517,-2.607692475,-4138,-1.26695215
2023-11-30 18:05:58.780,64159,209364,161105,-954,-0.29209095,-4179,-1.279505325
2023-11-30 18:05:58.780,64160,209391,161118,-1660,-0.5082505,-4118,-1.26082865
2023-11-30 18:05:58.780,64161,209435,161126,-8675,-2.656068125,-4189,-1.282567075
2023-11-30 18:05:58.780,64162,209433,161121,-3902,-1.19469485,-4234,-1.29634495
2023-11-30 18:05:58.780,64163,209358,161098,419,0.128287325,-4115,-1.259910125
2023-11-30 18:05:58.780,64164,209240,161037,-7268,-2.2252799,-4102,-1.25592985
2023-11-30 18:05:58.780,64165,209020,160946,-6990,-2.14016325,-4184,-1.2810362
2023-11-30 18:05:58.811,64166,208654,160804,673,0.206055775,-4111,-1.258685425
2023-11-30 18:05:58.811,64167,208194,160629,-4981,-1.525057675,-4038,-1.23633465
2023-11-30 18:05:58.811,64168,207596,160431,-9018,-2.76108615,-4102,-1.25592985
2023-11-30 18:05:58.811,64169,206964,160208,-1010,-0.30923675,-4064,-1.2442952
2023-11-30 18:05:58.811,64170,206391,160031,-2216,-0.6784838,-3949,-1.209085075
2023-11-30 18:05:58.811,64171,205949,159890,-9232,-2.8266076,-4002,-1.22531235
2023-11-30 18:05:58.811,64172,205600,159780,-4423,-1.354212025,-4064,-1.2442952
2023-11-30 18:05:58.843,64173,205339,159687,444,0.1359417,-3986,-1.22041355
2023-11-30 18:05:58.843,64174,205054,159623,-7276,-2.2277293,-4017,-1.229904975
2023-11-30 18:05:58.843,64175,204869,159544,-7617,-2.332134975,-4135,-1.266033625
2023-11-30 18:05:58.843,64176,204656,159492,367,0.112366225,-4093,-1.253174275
2023-11-30 18:05:58.843,64177,204507,159435,-4365,-1.336453875,-4052,-1.2406211
2023-11-30 18:05:58.843,64178,204387,159408,-9169,-2.807318575,-4159,-1.273381825
2023-11-30 18:05:58.874,64179,204300,159387,-2041,-0.624903175,-4173,-1.277668275
2023-11-30 18:05:58.874,64180,204243,159373,-1701,-0.520803675,-4094,-1.25348045
2023-11-30 18:05:58.874,64181,204194,159359,-8697,-2.662803975,-4167,-1.275831225
2023-11-30 18:05:58.874,64182,204187,159353,-4909,-1.503013075,-4239,-1.297875825
2023-11-30 18:05:58.874,64183,204178,159353,-86,-0.02633105,-4152,-1.2712386
2023-11-30 18:05:58.874,64184,204172,159369,-6947,-2.126997725,-4163,-1.274606525
2023-11-30 18:05:58.874,64185,204233,159381,-7334,-2.24548745,-4273,-1.308285775
2023-11-30 18:05:58.904,64186,204285,159406,137,0.041945975,-4228,-1.2945079
2023-11-30 18:05:58.904,64187,204349,159430,-4123,-1.262359525,-4193,-1.283791775
2023-11-30 18:05:58.904,64188,204427,159456,-8589,-2.629737075,-4330,-1.32573775
2023-11-30 18:05:58.904,64189,204506,159498,-1739,-0.532438325,-4377,-1.340127975
2023-11-30 18:05:58.904,64190,204610,159529,-1525,-0.466916875,-4311,-1.319920425
2023-11-30 18:05:58.904,64191,204705,159560,-8129,-2.488896575,-4392,-1.3447206
2023-11-30 18:05:58.934,64192,204814,159592,-4597,-1.407486475,-4486,-1.37350105
2023-11-30 18:05:58.934,64193,204902,159627,342,0.10471185,-4415,-1.351762625
2023-11-30 18:05:58.934,64194,204990,159678,-6310,-1.93196425,-4424,-1.3545182
2023-11-30 18:05:58.934,64195,205112,159701,-7144,-2.1873142,-4531,-1.387278925
2023-11-30 18:05:58.934,64196,205191,159742,542,0.16594685,-4494,-1.37595045
2023-11-30 18:05:58.975,64197,205297,159773,-3448,-1.0556914,-4449,-1.362172575
2023-11-30 18:05:58.975,64198,205355,159789,-8594,-2.63126795,-4544,-1.3912592
2023-11-30 18:05:58.975,64199,205446,159816,-1693,-0.518354275,-4550,-1.39309625
2023-11-30 18:05:58.975,64200,205499,159844,-872,-0.2669846,-4456,-1.3643158
2023-11-30 18:05:58.975,64201,205560,159856,-8005,-2.450930875,-4513,-1.381767775
2023-11-30 18:05:58.975,64202,205616,159879,-5081,-1.555675175,-4581,-1.402587675
2023-11-30 18:05:58.975,64203,205628,159878,252,0.0771561,-4480,-1.371664
2023-11-30 18:05:59.005,64204,205661,159885,-6314,-1.93318895,-4458,-1.36492815
2023-11-30 18:05:59.005,64205,205705,159902,-7315,-2.239670125,-4542,-1.39064685
2023-11-30 18:05:59.005,64206,205756,159913,131,0.040108925,-4475,-1.370133125
2023-11-30 18:05:59.005,64207,205808,159926,-3786,-1.15917855,-4377,-1.340127975
2023-11-30 18:05:59.005,64208,205866,159947,-8558,-2.62024565,-4426,-1.35513055
2023-11-30 18:05:59.005,64209,205923,159965,-1784,-0.5462162,-4403,-1.348088525
2023-11-30 18:05:59.035,64210,205997,159998,-675,-0.206668125,-4268,-1.3067549
2023-11-30 18:05:59.035,64211,206088,160006,-7878,-2.41204665,-4268,-1.3067549
2023-11-30 18:05:59.035,64212,206145,160038,-4698,-1.43841015,-4293,-1.314409275
2023-11-30 18:05:59.035,64213,206250,160057,1053,0.322402275,-4162,-1.27430035
2023-11-30 18:05:59.035,64214,206303,160079,-6027,-1.845316725,-4102,-1.25592985
2023-11-30 18:05:59.066,64215,206360,160087,-7397,-2.264776475,-4161,-1.273994175
2023-11-30 18:05:59.066,64216,206420,160124,725,0.221976875,-4092,-1.2528681
2023-11-30 18:05:59.066,64217,206423,160126,-3273,-1.002110775,-3995,-1.223169125
2023-11-30 18:05:59.066,64218,206461,160134,-8601,-2.633411175,-4055,-1.241539625
2023-11-30 18:05:59.066,64219,206466,160126,-1661,-0.508556675,-4069,-1.245826075
2023-11-30 18:05:59.066,64220,206490,160133,-945,-0.289335375,-3982,-1.21918885
2023-11-30 18:05:59.096,64221,206465,160126,-8012,-2.4530741,-4029,-1.233579075
2023-11-30 18:05:59.096,64222,206457,160138,-4993,-1.528731775,-4107,-1.257460725
2023-11-30 18:05:59.096,64223,206447,160124,821,0.251369675,-4034,-1.23510995
2023-11-30 18:05:59.096,64224,206402,160114,-5788,-1.7721409,-4038,-1.23633465
2023-11-30 18:05:59.096,64225,206373,160091,-7631,-2.336421425,-4161,-1.273994175
2023-11-30 18:05:59.096,64226,206324,160088,179,0.054805325,-4135,-1.266033625
2023-11-30 18:05:59.126,64227,206309,160073,-2702,-0.82728485,-4062,-1.24368285
2023-11-30 18:05:59.126,64228,206271,160041,-8514,-2.60677395,-4141,-1.267870675
2023-11-30 18:05:59.126,64229,206267,160034,-2236,-0.6846073,-4153,-1.271544775
2023-11-30 18:05:59.126,64230,206249,160036,-469,-0.143596075,-4027,-1.232966725
2023-11-30 18:05:59.126,64231,206245,160044,-7967,-2.439296225,-4024,-1.2320482
2023-11-30 18:05:59.126,64232,206226,160039,-5252,-1.6080311,-4062,-1.24368285
2023-11-30 18:05:59.126,64233,206253,160042,795,0.243409125,-3942,-1.20694185
2023-11-30 18:05:59.156,64234,206237,160025,-5954,-1.82296595,-3886,-1.18979605
2023-11-30 18:05:59.156,64235,206275,160035,-7839,-2.400105825,-3954,-1.21061595
2023-11-30 18:05:59.156,64236,206286,160042,187,0.057254725,-3896,-1.1928578
2023-11-30 18:05:59.156,64237,206328,160048,-3251,-0.995374925,-3813,-1.167445275
2023-11-30 18:05:59.156,64238,206347,160060,-8832,-2.7041376,-3900,-1.1940825
2023-11-30 18:05:59.156,64239,206399,160076,-2436,-0.7458423,-3936,-1.2051048
2023-11-30 18:05:59.156,64240,206425,160093,-72,-0.0220446,-3849,-1.178467575
2023-11-30 18:05:59.186,64241,206475,160118,-7681,-2.351730175,-3898,-1.19347015
2023-11-30 18:05:59.186,64242,206531,160130,-5825,-1.783469375,-3994,-1.22286295
2023-11-30 18:05:59.186,64243,206602,160162,747,0.228712725,-3927,-1.202349225
2023-11-30 18:05:59.186,64244,206670,160184,-5413,-1.657325275,-3908,-1.1965319
2023-11-30 18:05:59.186,64245,206778,160216,-8153,-2.496244775,-4005,-1.226230875
2023-11-30 18:05:59.186,64246,206841,160238,-524,-0.1604357,-3973,-1.216433275
2023-11-30 18:05:59.216,64247,206946,160274,-2891,-0.885151925,-3899,-1.193776325
2023-11-30 18:05:59.216,64248,207035,160307,-8863,-2.713629025,-3980,-1.2185765
2023-11-30 18:05:59.216,64249,207108,160342,-3297,-1.009458975,-4011,-1.228067925
2023-11-30 18:05:59.216,64250,207222,160367,-755,-0.231162125,-3915,-1.198675125
2023-11-30 18:05:59.216,64251,207294,160395,-7970,-2.44021475,-3955,-1.210922125
2023-11-30 18:05:59.216,64252,207367,160437,-6246,-1.91236905,-4047,-1.239090225
2023-11-30 18:05:59.216,64253,207455,160442,217,0.066439975,-3975,-1.217045625
2023-11-30 18:05:59.247,64254,207553,160472,-5697,-1.744278975,-3958,-1.21184065
2023-11-30 18:05:59.247,64255,207632,160510,-8324,-2.5486007,-4085,-1.250724875
2023-11-30 18:05:59.247,64256,207691,160542,-636,-0.1947273,-4087,-1.251337225
2023-11-30 18:05:59.247,64257,207783,160553,-2798,-0.85667765,-4016,-1.2295988
2023-11-30 18:05:59.247,64258,207873,160581,-8708,-2.6661719,-4094,-1.25348045
2023-11-30 18:05:59.247,64259,207932,160600,-3208,-0.9822094,-4134,-1.26572745
2023-11-30 18:05:59.297,64260,207985,160631,-254,-0.07776845,-4038,-1.23633465
2023-11-30 18:05:59.297,64261,208042,160649,-7492,-2.2938631,-4061,-1.243376675
2023-11-30 18:05:59.297,64262,208108,160667,-6262,-1.91726785,-4143,-1.268483025
2023-11-30 18:05:59.297,64263,208184,160688,659,0.201769325,-4079,-1.248887825
2023-11-30 18:05:59.297,64264,208237,160704,-5185,-1.587517375,-4064,-1.2442952
2023-11-30 18:05:59.327,64265,208298,160725,-8414,-2.57615645,-4181,-1.280117675
2023-11-30 18:05:59.327,64266,208334,160742,-725,-0.221976875,-4182,-1.28042385
2023-11-30 18:05:59.327,64267,208400,160755,-2327,-0.712469225,-4131,-1.264808925
2023-11-30 18:05:59.327,64268,208443,160775,-8688,-2.6600484,-4245,-1.299712875
2023-11-30 18:05:59.327,64269,208469,160780,-3680,-1.126724,-4332,-1.3263501
2023-11-30 18:05:59.327,64270,208492,160791,-406,-0.12430705,-4276,-1.3092043
2023-11-30 18:05:59.327,64271,208550,160802,-7527,-2.304579225,-4337,-1.327880975
2023-11-30 18:05:59.357,64272,208586,160817,-6431,-1.969011425,-4464,-1.3667652
2023-11-30 18:05:59.357,64273,208635,160828,418,0.12798115,-4422,-1.35390585
2023-11-30 18:05:59.357,64274,208661,160837,-5163,-1.580781525,-4393,-1.345026775
2023-11-30 18:05:59.357,64275,208698,160841,-8245,-2.524412875,-4487,-1.373807225
2023-11-30 18:05:59.357,64276,208735,160858,-356,-0.1089983,-4462,-1.36615285
2023-11-30 18:05:59.357,64277,208768,160868,-1975,-0.604695625,-4356,-1.3336983
2023-11-30 18:05:59.387,64278,208785,160885,-8911,-2.728325425,-4397,-1.346251475
2023-11-30 18:05:59.387,64279,208805,160897,-3726,-1.14080805,-4417,-1.352374975
2023-11-30 18:05:59.387,64280,208821,160889,-173,-0.052968275,-4291,-1.313796925
2023-11-30 18:05:59.387,64281,208824,160897,-8469,-2.592996075,-4272,-1.3079796
2023-11-30 18:05:59.387,64282,208854,160902,-7570,-2.31774475,-4331,-1.326043925
2023-11-30 18:05:59.387,64283,208879,160916,450,0.13777875,-4242,-1.29879435
2023-11-30 18:05:59.387,64284,208896,160930,-4926,-1.50821805,-4180,-1.2798115
2023-11-30 18:05:59.387,64285,208944,160922,-7790,-2.38510325,-4263,-1.305224025
2023-11-30 18:05:59.427,64286,208958,160941,-395,-0.120939125,-4255,-1.302774625
2023-11-30 18:05:59.427,64287,208986,160937,-1799,-0.550808825,-4178,-1.27919915
2023-11-30 18:05:59.427,64288,209001,160951,-8091,-2.477261925,-4254,-1.30246845
2023-11-30 18:05:59.427,64289,209046,160947,-3627,-1.110496725,-4315,-1.321145125
2023-11-30 18:05:59.427,64290,209079,160963,384,0.1175712,-4232,-1.2957326
2023-11-30 18:05:59.427,64291,209114,160979,-6839,-2.093930825,-4256,-1.3030808
2023-11-30 18:05:59.427,64292,209119,160984,-6623,-2.027797025,-4353,-1.332779775
2023-11-30 18:05:59.457,64293,209145,160986,884,0.2706587,-4276,-1.3092043
2023-11-30 18:05:59.457,64294,209170,160999,-4331,-1.326043925,-4204,-1.2871597
2023-11-30 18:05:59.457,64295,209186,160990,-8414,-2.57615645,-4285,-1.311959875
2023-11-30 18:05:59.457,64296,209210,161009,-688,-0.2106484,-4273,-1.308285775
2023-11-30 18:05:59.457,64297,209235,161005,-1839,-0.563055825,-4183,-1.280730025
2023-11-30 18:05:59.457,64298,209252,161023,-8609,-2.635860575,-4270,-1.30736725
2023-11-30 18:05:59.457,64299,209271,161033,-3750,-1.14815625,-4374,-1.33920945
2023-11-30 18:05:59.457,64300,209299,161042,390,0.11940825,-4328,-1.3251254
2023-11-30 18:05:59.457,64301,209341,161053,-7092,-2.1713931,-4361,-1.335229175
2023-11-30 18:05:59.487,64302,209393,161062,-7049,-2.158227575,-4448,-1.3618664
2023-11-30 18:05:59.487,64303,209397,161081,628,0.1922779,-4363,-1.335841525
2023-11-30 18:05:59.487,64304,209441,161088,-4429,-1.356049075,-4285,-1.311959875
2023-11-30 18:05:59.487,64305,209481,161093,-8728,-2.6722954,-4345,-1.330330375
2023-11-30 18:05:59.487,64306,209505,161115,-1584,-0.4849812,-4302,-1.31716485
2023-11-30 18:05:59.487,64307,209575,161126,-1393,-0.426501775,-4170,-1.27674975
2023-11-30 18:05:59.487,64308,209601,161141,-8611,-2.636472925,-4191,-1.283179425
2023-11-30 18:05:59.517,64309,209661,161145,-4853,-1.485867275,-4193,-1.283791775
2023-11-30 18:05:59.517,64310,209680,161182,43,0.013165525,-4021,-1.231129675
2023-11-30 18:05:59.517,64311,209743,161187,-7152,-2.1897636,-3941,-1.206635675
2023-11-30 18:05:59.517,64312,209779,161215,-7623,-2.333972025,-3966,-1.21429005
2023-11-30 18:05:59.517,64313,209837,161213,-43,-0.013165525,-3868,-1.1842849
2023-11-30 18:05:59.517,64314,209877,161238,-4556,-1.3949333,-3808,-1.1659144
2023-11-30 18:05:59.547,64315,209917,161254,-8996,-2.7543503,-3928,-1.2026554
2023-11-30 18:05:59.547,64316,209983,161264,-1937,-0.593060975,-3975,-1.217045625
2023-11-30 18:05:59.547,64317,210013,161288,-1796,-0.5498903,-3926,-1.20204305
2023-11-30 18:05:59.547,64318,210030,161301,-8776,-2.6869918,-4016,-1.2295988
2023-11-30 18:05:59.547,64319,210055,161299,-5211,-1.595477925,-4099,-1.255011325
2023-11-30 18:05:59.547,64320,210073,161307,-133,-0.040721275,-4012,-1.2283741
2023-11-30 18:05:59.547,64321,210048,161294,-6975,-2.135570625,-4015,-1.229292625
2023-11-30 18:05:59.547,64322,209984,161249,-7611,-2.330297925,-4135,-1.266033625
2023-11-30 18:05:59.577,64323,209820,161206,127,0.038884225,-4123,-1.262359525
2023-11-30 18:05:59.577,64324,209598,161108,-4374,-1.33920945,-4103,-1.256236025
2023-11-30 18:05:59.577,64325,209267,160971,-9119,-2.792009825,-4223,-1.292977025
2023-11-30 18:05:59.577,64326,208822,160805,-2093,-0.640824275,-4256,-1.3030808
2023-11-30 18:05:59.577,64327,208268,160594,-1392,-0.4261956,-4190,-1.28287325
2023-11-30 18:05:59.577,64328,207674,160388,-8721,-2.670152175,-4273,-1.308285775
2023-11-30 18:05:59.607,64329,207065,160200,-5286,-1.61844105,-4377,-1.340127975
2023-11-30 18:05:59.607,64330,206566,160031,376,0.1151218,-4331,-1.326043925
2023-11-30 18:05:59.607,64331,206180,159928,-6946,-2.12669155,-4372,-1.3385971
2023-11-30 18:05:59.607,64332,205893,159834,-8214,-2.51492145,-4511,-1.381155425
2023-11-30 18:05:59.607,64333,205666,159772,-364,-0.1114477,-4493,-1.375644275
2023-11-30 18:05:59.637,64334,205466,159711,-4321,-1.322982175,-4449,-1.362172575
2023-11-30 18:05:59.637,64335,205300,159661,-9340,-2.8596745,-4561,-1.396464175
2023-11-30 18:05:59.637,64336,205138,159611,-2438,-0.74645465,-4607,-1.410548225
2023-11-30 18:05:59.637,64337,205038,159582,-1407,-0.430788225,-4539,-1.389728325
2023-11-30 18:05:59.637,64338,204980,159564,-8535,-2.613203625,-4605,-1.409935875
2023-11-30 18:05:59.637,64339,204926,159547,-4978,-1.52413915,-4685,-1.434429875
2023-11-30 18:05:59.637,64340,204915,159554,765,0.234223875,-4593,-1.406261775
2023-11-30 18:05:59.677,64341,204928,159559,-6286,-1.92461605,-4569,-1.398913575
2023-11-30 18:05:59.677,64342,204960,159578,-7557,-2.313764475,-4653,-1.424632275
2023-11-30 18:05:59.677,64343,204995,159573,629,0.192584075,-4597,-1.407486475
2023-11-30 18:05:59.677,64344,205062,159618,-3274,-1.00241695,-4517,-1.382992475
2023-11-30 18:05:59.677,64345,205134,159650,-8540,-2.6147345,-4599,-1.408098825
2023-11-30 18:05:59.677,64346,205218,159670,-1540,-0.4715095,-4620,-1.4145285
2023-11-30 18:05:59.707,64347,205351,159726,-903,-0.276476025,-4515,-1.382380125
2023-11-30 18:05:59.707,64348,205472,159760,-8056,-2.4665458,-4545,-1.391565375
2023-11-30 18:05:59.707,64349,205598,159799,-5043,-1.544040525,-4614,-1.41269145
2023-11-30 18:05:59.707,64350,205708,159844,616,0.1886038,-4536,-1.3888098
2023-11-30 18:05:59.707,64351,205811,159906,-5977,-1.830007975,-4536,-1.3888098
2023-11-30 18:05:59.707,64352,205926,159930,-7512,-2.2999866,-4659,-1.426469325
2023-11-30 18:05:59.707,64353,206040,159950,173,0.052968275,-4647,-1.422795225
2023-11-30 18:05:59.707,64354,206155,160005,-2946,-0.90199155,-4598,-1.40779265
2023-11-30 18:05:59.738,64355,206240,160039,-8457,-2.589321975,-4694,-1.43718545
2023-11-30 18:05:59.738,64356,206329,160059,-2239,-0.685525825,-4703,-1.439941025
2023-11-30 18:05:59.738,64357,206382,160075,-277,-0.084810475,-4566,-1.39799505
2023-11-30 18:05:59.738,64358,206450,160090,-7779,-2.381735325,-4562,-1.39677035
2023-11-30 18:05:59.738,64359,206521,160097,-5254,-1.60864345,-4593,-1.406261775
2023-11-30 18:05:59.738,64360,206537,160128,769,0.235448575,-4447,-1.361560225
2023-11-30 18:05:59.738,64361,206593,160141,-5927,-1.814699225,-4353,-1.332779775
2023-11-30 18:05:59.768,64362,206631,160134,-7828,-2.3967379,-4371,-1.338290925
2023-11-30 18:05:59.768,64363,206673,160154,174,0.05327445,-4246,-1.30001905
2023-11-30 18:05:59.768,64364,206712,160165,-3404,-1.0422197,-4087,-1.251337225
2023-11-30 18:05:59.768,64365,206764,160178,-8753,-2.679949775,-4098,-1.25470515
2023-11-30 18:05:59.768,64366,206800,160198,-2265,-0.693486375,-4072,-1.2467446
2023-11-30 18:05:59.798,64367,206853,160221,-425,-0.130124375,-3946,-1.20816655
2023-11-30 18:05:59.798,64368,206939,160242,-7806,-2.39000205,-3973,-1.216433275
2023-11-30 18:05:59.798,64369,207010,160269,-5818,-1.78132615,-4049,-1.239702575
2023-11-30 18:05:59.798,64370,207082,160311,769,0.235448575,-3964,-1.2136777
2023-11-30 18:05:59.798,64371,207167,160326,-5469,-1.674471075,-3936,-1.2051048
2023-11-30 18:05:59.798,64372,207255,160364,-8213,-2.514615275,-4032,-1.2344976
2023-11-30 18:05:59.798,64373,207333,160373,-645,-0.197482875,-4003,-1.225618525
2023-11-30 18:05:59.828,64374,207378,160392,-2808,-0.8597394,-3929,-1.202961575
2023-11-30 18:05:59.828,64375,207409,160417,-8856,-2.7114858,-4007,-1.226843225
2023-11-30 18:05:59.828,64376,207448,160423,-3436,-1.0520173,-4033,-1.234803775
2023-11-30 18:05:59.828,64377,207466,160407,-722,-0.22105835,-3931,-1.203573925
2023-11-30 18:05:59.828,64378,207455,160420,-7856,-2.4053108,-3960,-1.212453
2023-11-30 18:05:59.828,64379,207449,160405,-6329,-1.937781575,-4038,-1.23633465
2023-11-30 18:05:59.858,64380,207421,160394,196,0.0600103,-3959,-1.212146825
2023-11-30 18:05:59.858,64381,207372,160377,-5599,-1.714273825,-3941,-1.206635675
2023-11-30 18:05:59.858,64382,207339,160372,-8198,-2.51002265,-4062,-1.24368285
2023-11-30 18:05:59.858,64383,207289,160338,-599,-0.183398825,-4057,-1.242151975
2023-11-30 18:05:59.858,64384,207265,160337,-2893,-0.885764275,-3993,-1.222556775
2023-11-30 18:05:59.888,64385,207236,160312,-8650,-2.64841375,-4087,-1.251337225
2023-11-30 18:05:59.888,64386,207218,160318,-3255,-0.996599625,-4143,-1.268483025
2023-11-30 18:05:59.888,64387,207188,160306,-479,-0.146657825,-4059,-1.242764325
2023-11-30 18:05:59.888,64388,207182,160296,-7476,-2.2889643,-4090,-1.25225575
2023-11-30 18:05:59.888,64389,207167,160292,-6162,-1.88665035,-4183,-1.280730025
2023-11-30 18:05:59.888,64390,207147,160292,602,0.18431735,-4130,-1.26450275
2023-11-30 18:05:59.918,64391,207138,160283,-5065,-1.550776375,-4117,-1.260522475
2023-11-30 18:05:59.918,64392,207125,160277,-8212,-2.5143091,-4228,-1.2945079
2023-11-30 18:05:59.918,64393,207133,160284,-470,-0.14390225,-4227,-1.294201725
2023-11-30 18:05:59.918,64394,207147,160280,-2339,-0.716143325,-4177,-1.278892975
2023-11-30 18:05:59.918,64395,207162,160296,-8716,-2.6686213,-4285,-1.311959875
2023-11-30 18:05:59.918,64396,207190,160297,-3573,-1.093963275,-4363,-1.335841525
2023-11-30 18:05:59.958,64397,207227,160323,-430,-0.13165525,-4304,-1.3177772
2023-11-30 18:05:59.958,64398,207237,160332,-7548,-2.3110089,-4360,-1.334923
2023-11-30 18:05:59.958,64399,207292,160341,-6407,-1.961663225,-4475,-1.370133125
2023-11-30 18:05:59.958,64400,207334,160341,313,0.095832775,-4418,-1.35268115
2023-11-30 18:05:59.958,64401,207391,160371,-5225,-1.599764375,-4380,-1.3410465
2023-11-30 18:05:59.988,64402,207443,160397,-8336,-2.5522748,-4472,-1.3692146
2023-11-30 18:05:59.988,64403,207514,160415,-624,-0.1910532,-4450,-1.36247875
2023-11-30 18:05:59.988,64404,207591,160447,-2008,-0.6147994,-4350,-1.33186125
2023-11-30 18:05:59.988,64405,207678,160475,-8537,-2.613815975,-4396,-1.3459453
2023-11-30 18:05:59.988,64406,207764,160502,-3161,-0.967819175,-4417,-1.352374975
2023-11-30 18:05:59.988,64407,207860,160533,290,0.08879075,-4291,-1.313796925
2023-11-30 18:06:00.018,64408,207959,160571,-7330,-2.24426275,-4269,-1.307061075
2023-11-30 18:06:00.018,64409,208051,160597,-6383,-1.954315025,-4321,-1.322982175
2023-11-30 18:06:00.018,64410,208151,160631,830,0.25412525,-4224,-1.2932832
2023-11-30 18:06:00.018,64411,208246,160657,-5017,-1.536079975,-4155,-1.272157125
2023-11-30 18:06:00.018,64412,208309,160702,-8375,-2.564215625,-4232,-1.2957326
2023-11-30 18:06:00.018,64413,208399,160728,-721,-0.220752175,-4217,-1.291139975
2023-11-30 18:06:00.048,64414,208483,160740,-2302,-0.70481485,-4135,-1.266033625
2023-11-30 18:06:00.048,64415,208570,160766,-8507,-2.604630725,-4206,-1.28777205
2023-11-30 18:06:00.048,64416,208617,160791,-3859,-1.181529325,-4263,-1.305224025
2023-11-30 18:06:00.048,64417,208691,160824,253,0.077462275,-4182,-1.28042385
2023-11-30 18:06:00.048,64418,208753,160845,-7026,-2.15118555,-4210,-1.28899675
2023-11-30 18:06:00.048,64419,208804,160858,-6713,-2.055352775,-4316,-1.3214513
2023-11-30 18:06:00.048,64420,208866,160874,719,0.220139825,-4259,-1.303999325
2023-11-30 18:06:00.078,64421,208909,160905,-4381,-1.341352675,-4211,-1.289302925
2023-11-30 18:06:00.078,64422,208964,160913,-8559,-2.620551825,-4301,-1.316858675
2023-11-30 18:06:00.078,64423,209002,160915,-790,-0.24187825,-4278,-1.30981665
2023-11-30 18:06:00.078,64424,209051,160931,-1801,-0.551421175,-4157,-1.272769475
2023-11-30 18:06:00.078,64425,209098,160946,-8604,-2.6343297,-4183,-1.280730025
2023-11-30 18:06:00.078,64426,209125,160958,-3735,-1.143563625,-4202,-1.28654735
2023-11-30 18:06:00.078,64427,209193,160971,198,0.06062265,-4075,-1.247663125
2023-11-30 18:06:00.108,64428,209198,160979,-7088,-2.1701684,-4055,-1.241539625
2023-11-30 18:06:00.108,64429,209249,160983,-6844,-2.0954617,-4126,-1.26327805
2023-11-30 18:06:00.108,64430,209263,160999,629,0.192584075,-4052,-1.2406211
2023-11-30 18:06:00.108,64431,209288,161016,-4394,-1.34533295,-4002,-1.22531235
2023-11-30 18:06:00.108,64432,209332,161037,-8562,-2.62147035,-4106,-1.25715455
2023-11-30 18:06:00.108,64433,209339,161030,-1521,-0.465692175,-4118,-1.26082865
2023-11-30 18:06:00.138,64434,209375,161042,-1360,-0.416398,-4043,-1.237865525
2023-11-30 18:06:00.138,64435,209427,161054,-8393,-2.569726775,-4120,-1.261441
2023-11-30 18:06:00.138,64436,209414,161062,-4400,-1.34717,-4191,-1.283179425
2023-11-30 18:06:00.138,64437,209464,161069,238,0.07286965,-4105,-1.256848375
2023-11-30 18:06:00.138,64438,209497,161084,-6951,-2.128222425,-4108,-1.2577669
2023-11-30 18:06:00.138,64439,209521,161070,-7740,-2.3697945,-4194,-1.28409795
2023-11-30 18:06:00.138,64440,209510,161102,-422,-0.12920585,-4124,-1.2626657
2023-11-30 18:06:00.178,64441,209578,161099,-5343,-1.635893025,-4057,-1.242151975
2023-11-30 18:06:00.178,64442,209580,161111,-10068,-3.0825699,-4139,-1.267258325
2023-11-30 18:06:00.178,64443,209619,161121,-3029,-0.927404075,-4130,-1.26450275
2023-11-30 18:06:00.178,64444,209637,161131,-2196,-0.6723603,-4029,-1.233579075
2023-11-30 18:06:00.178,64445,209657,161134,-8526,-2.61044805,-4085,-1.250724875
2023-11-30 18:06:00.178,64446,209666,161139,-4221,-1.292364675,-4148,-1.2700139
2023-11-30 18:06:00.208,64447,209695,161146,399,0.122163825,-4055,-1.241539625
2023-11-30 18:06:00.208,64448,209729,161157,-6195,-1.896754125,-4056,-1.2418458
2023-11-30 18:06:00.208,64449,209743,161168,-6784,-2.0770912,-4163,-1.274606525
2023-11-30 18:06:00.208,64450,209759,161171,606,0.18554205,-4127,-1.263584225
2023-11-30 18:06:00.208,64451,209799,161183,-4047,-1.239090225,-4079,-1.248887825
2023-11-30 18:06:00.208,64452,209826,161203,-8591,-2.630349425,-4175,-1.278280625
2023-11-30 18:06:00.208,64453,209841,161188,-1854,-0.56764845,-4187,-1.281954725
2023-11-30 18:06:00.208,64454,209849,161209,-1051,-0.321789925,-4104,-1.2565422
2023-11-30 18:06:00.208,64455,209896,161204,-8105,-2.481548375,-4170,-1.27674975
2023-11-30 18:06:00.239,64456,209927,161218,-5029,-1.539754075,-4261,-1.304611675
2023-11-30 18:06:00.239,64457,209943,161234,445,0.136247875,-4221,-1.292364675
2023-11-30 18:06:00.239,64458,209977,161233,-6418,-1.96503115,-4292,-1.3141031
2023-11-30 18:06:00.239,64459,210012,161251,-7592,-2.3244806,-4496,-1.3765628
2023-11-30 18:06:00.239,64460,210030,161255,-26,-0.00796055,-4569,-1.398913575
2023-11-30 18:06:00.239,64461,210047,161263,-4123,-1.262359525,-4615,-1.412997625
2023-11-30 18:06:00.239,64462,210087,161269,-8829,-2.703219075,-4784,-1.4647412
2023-11-30 18:06:00.270,64463,210116,161280,-2255,-0.690424625,-4841,-1.482193175
2023-11-30 18:06:00.270,64464,210133,161298,-1386,-0.42435855,-4755,-1.455862125
2023-11-30 18:06:00.270,64465,210165,161310,-8237,-2.521963475,-4776,-1.4622918
2023-11-30 18:06:00.270,64466,210190,161322,-5026,-1.53883555,-4788,-1.4659659
2023-11-30 18:06:00.270,64467,210238,161318,590,0.18064325,-4625,-1.416059375
2023-11-30 18:06:00.300,64468,210267,161354,-6309,-1.931658075,-4483,-1.372582525
2023-11-30 18:06:00.300,64469,210289,161347,-7500,-2.2963125,-4549,-1.392790075
2023-11-30 18:06:00.300,64470,210306,161364,557,0.170539475,-4401,-1.347476175
2023-11-30 18:06:00.300,64471,210362,161378,-3410,-1.04405675,-4216,-1.2908338
2023-11-30 18:06:00.300,64472,210403,161386,-8822,-2.70107585,-4187,-1.281954725
2023-11-30 18:06:00.300,64473,210428,161402,-1880,-0.575609,-4125,-1.262971875
2023-11-30 18:06:00.300,64474,210468,161408,-1034,-0.31658495,-3988,-1.2210259
2023-11-30 18:06:00.300,64475,210497,161413,-8337,-2.552580975,-4019,-1.230517325
2023-11-30 18:06:00.330,64476,210556,161447,-5362,-1.64171035,-4116,-1.2602163
2023-11-30 18:06:00.330,64477,210570,161439,421,0.128899675,-4091,-1.252561925
2023-11-30 18:06:00.330,64478,210599,161458,-6307,-1.931045725,-4147,-1.269707725
2023-11-30 18:06:00.330,64479,210607,161453,-7852,-2.4040861,-4300,-1.3165525
2023-11-30 18:06:00.330,64480,210606,161454,-154,-0.04715095,-4295,-1.315021625
2023-11-30 18:06:00.330,64481,210553,161421,-3571,-1.093350925,-4244,-1.2994067
2023-11-30 18:06:00.360,64482,210401,161380,-8922,-2.73169335,-4341,-1.329105675
2023-11-30 18:06:00.360,64483,210171,161266,-2671,-0.817793425,-4375,-1.339515625
2023-11-30 18:06:00.360,64484,209854,161142,-741,-0.226875675,-4283,-1.311347525
2023-11-30 18:06:00.360,64485,209406,160963,-8273,-2.532985775,-4324,-1.3239007
2023-11-30 18:06:00.360,64486,208861,160751,-5727,-1.753464225,-4394,-1.34533295
2023-11-30 18:06:00.390,64487,208209,160542,562,0.17207035,-4288,-1.3128784
2023-11-30 18:06:00.390,64488,207548,160314,-6314,-1.93318895,-4230,-1.29512025
2023-11-30 18:06:00.390,64489,206975,160132,-8324,-2.5486007,-4289,-1.313184575
2023-11-30 18:06:00.420,64490,206535,159992,-178,-0.05449915,-4218,-1.29144615
2023-11-30 18:06:00.420,64491,206187,159893,-3808,-1.1659144,-4115,-1.259910125
2023-11-30 18:06:00.420,64492,205906,159803,-9379,-2.871615325,-4179,-1.279505325
2023-11-30 18:06:00.420,64493,205696,159742,-2841,-0.869843175,-4199,-1.285628825
2023-11-30 18:06:00.420,64494,205511,159687,-814,-0.24922645,-4105,-1.256848375
2023-11-30 18:06:00.420,64495,205339,159628,-8387,-2.567889725,-4150,-1.27062625
2023-11-30 18:06:00.450,64496,205195,159595,-6493,-1.987994275,-4242,-1.29879435
2023-11-30 18:06:00.450,64497,205126,159573,289,0.088484575,-4183,-1.280730025
