Time, Sample Count, IR Count, Red Count, Raw ECG, Raw ECG (mV), Filtered ECG, Filtered ECG (mV)
2023-10-21 23:44:56.673,16828,219419,194181,-6511,-1.993505425,-7060,-2.1615955
2023-10-21 23:44:56.705,16829,219452,194202,-6187,-1.894304725,-6919,-2.118424825
2023-10-21 23:44:56.736,16830,219450,194200,-6301,-1.929208675,-6940,-2.1248545
2023-10-21 23:44:56.736,16831,219486,194196,-5712,-1.7488716,-6904,-2.1138322
2023-10-21 23:44:56.736,16832,219486,194217,-5542,-1.69682185,-6745,-2.065150375
2023-10-21 23:44:56.736,16833,219505,194207,-6219,-1.904102325,-6710,-2.05443425
2023-10-21 23:44:56.766,16834,219529,194211,-6140,-1.8799145,-6785,-2.077397375
2023-10-21 23:44:56.766,16835,219539,194219,-5610,-1.71764175,-6774,-2.07402945
2023-10-21 23:44:56.766,16836,219558,194230,-5994,-1.83521295,-6762,-2.07035535
2023-10-21 23:44:56.766,16837,219560,194222,-6393,-1.957376775,-6767,-2.071886225
2023-10-21 23:44:56.766,16838,219591,194234,-5735,-1.755913625,-6731,-2.060863925
2023-10-21 23:44:56.798,16839,219600,194233,-6021,-1.843479675,-6681,-2.045555175
2023-10-21 23:44:56.798,16840,219617,194233,-6573,-2.012488275,-6660,-2.0391255
2023-10-21 23:44:56.798,16841,219633,194236,-6022,-1.84378585,-6661,-2.039431675
2023-10-21 23:44:56.798,16842,219644,194246,-5678,-1.73846165,-6751,-2.066987425
2023-10-21 23:44:56.830,16843,219668,194251,-6111,-1.871035425,-7177,-2.197417975
2023-10-21 23:44:56.830,16844,219698,194256,-5640,-1.726827,-7421,-2.272124675
2023-10-21 23:44:56.830,16845,219713,194263,-5258,-1.60986815,-7197,-2.203541475
2023-10-21 23:44:56.830,16846,219769,194281,-5989,-1.833682075,-6850,-2.09729875
2023-10-21 23:44:56.830,16847,219806,194289,-6238,-1.90991965,-6624,-2.0281032
2023-10-21 23:44:56.830,16848,219835,194319,-5485,-1.679369875,-6352,-1.9448236
2023-10-21 23:44:56.830,16849,219877,194320,-5509,-1.686718075,-6046,-1.85113405
2023-10-21 23:44:56.860,16850,219897,194324,-6001,-1.837356175,-5902,-1.80704485
2023-10-21 23:44:56.860,16851,219935,194342,-5890,-1.80337075,-5819,-1.781632325
2023-10-21 23:44:56.860,16852,219978,194366,-5802,-1.77642735,-5736,-1.7562198
2023-10-21 23:44:56.860,16853,220003,194365,-6442,-1.97237935,-5877,-1.799390475
2023-10-21 23:44:56.860,16854,220030,194378,-6356,-1.9460483,-6147,-1.882057725
2023-10-21 23:44:56.860,16855,220061,194398,-5917,-1.811637475,-6213,-1.902265275
2023-10-21 23:44:56.860,16856,220090,194401,-6626,-2.02871555,-6169,-1.888793575
2023-10-21 23:44:56.890,16857,220128,194427,-6708,-2.0538219,-6138,-1.87930215
2023-10-21 23:44:56.890,16858,220140,194437,-6216,-1.9031838,-6029,-1.845929075
2023-10-21 23:44:56.890,16859,220167,194436,-6591,-2.017999425,-5961,-1.825109175
2023-10-21 23:44:56.890,16860,220200,194453,-7191,-2.201704425,-5974,-1.82908945
2023-10-21 23:44:56.890,16861,220230,194447,-6687,-2.047392225,-5981,-1.831232675
2023-10-21 23:44:56.890,16862,220237,194462,-6622,-2.02749085,-5960,-1.824803
2023-10-21 23:44:56.890,16863,220232,194459,-7317,-2.240282475,-5997,-1.836131475
2023-10-21 23:44:56.890,16864,220203,194428,-7193,-2.202316775,-5979,-1.830620325
2023-10-21 23:44:56.890,16865,220159,194402,-6814,-2.08627645,-5862,-1.79479785
2023-10-21 23:44:56.923,16866,220070,194356,-7472,-2.2877396,-5787,-1.771834725
2023-10-21 23:44:56.923,16867,219956,194317,-7658,-2.34468815,-5845,-1.789592875
2023-10-21 23:44:56.923,16868,219831,194244,-7119,-2.179659825,-5842,-1.78867435
2023-10-21 23:44:56.923,16869,219670,194166,-7512,-2.2999866,-5838,-1.78744965
2023-10-21 23:44:56.923,16870,219467,194082,-8138,-2.49165215,-5858,-1.79357315
2023-10-21 23:44:56.923,16871,219268,193992,-7618,-2.33244115,-5919,-1.812249825
2023-10-21 23:44:56.923,16872,219052,193905,-7413,-2.269675275,-5949,-1.821435075
2023-10-21 23:44:56.923,16873,218827,193815,-8104,-2.4812422,-6111,-1.871035425
2023-10-21 23:44:56.923,16874,218596,193719,-8065,-2.469301375,-6370,-1.95033475
2023-10-21 23:44:56.953,16875,218363,193635,-7694,-2.35571045,-6464,-1.9791152
2023-10-21 23:44:56.953,16876,218142,193527,-8422,-2.57860585,-6520,-1.996261
2023-10-21 23:44:56.953,16877,217922,193439,-8712,-2.6673966,-6626,-2.02871555
2023-10-21 23:44:56.953,16878,217693,193368,-8214,-2.51492145,-6639,-2.032695825
2023-10-21 23:44:56.953,16879,217461,193266,-8440,-2.584117,-6652,-2.0366761
2023-10-21 23:44:56.953,16880,217293,193194,-9025,-2.763229375,-6824,-2.0893382
2023-10-21 23:44:56.953,16881,217121,193144,-8680,-2.657599,-6992,-2.1407756
2023-10-21 23:44:56.985,16882,216955,193056,-8575,-2.625450625,-7034,-2.15363495
2023-10-21 23:44:56.985,16883,216829,193019,-9317,-2.852632475,-7119,-2.179659825
2023-10-21 23:44:56.985,16884,216712,192963,-9138,-2.79782715,-7229,-2.213339075
2023-10-21 23:44:56.985,16885,216618,192936,-8556,-2.6196333,-7244,-2.2179317
2023-10-21 23:44:56.985,16886,216521,192894,-9355,-2.864267125,-7326,-2.24303805
2023-10-21 23:44:56.985,16887,216476,192876,-9684,-2.9649987,-7539,-2.308253325
2023-10-21 23:44:56.985,16888,216443,192842,-9041,-2.768128175,-7638,-2.33856465
2023-10-21 23:44:56.985,16889,216391,192847,-9230,-2.82599525,-7629,-2.335809075
2023-10-21 23:44:57.015,16890,216355,192825,-9752,-2.9858186,-7717,-2.362752475
2023-10-21 23:44:57.015,16891,216351,192815,-9236,-2.8278323,-7809,-2.390920575
2023-10-21 23:44:57.015,16892,216310,192806,-9117,-2.791397475,-7831,-2.397656425
2023-10-21 23:44:57.015,16893,216293,192803,-9905,-3.032663375,-7955,-2.435622125
2023-10-21 23:44:57.015,16894,216290,192798,-9727,-2.978164225,-8158,-2.49777565
2023-10-21 23:44:57.015,16895,216261,192783,-9089,-2.782824575,-8257,-2.528086975
2023-10-21 23:44:57.015,16896,216241,192767,-9724,-2.9772457,-8361,-2.559929175
2023-10-21 23:44:57.046,16897,216231,192765,-10013,-3.065730275,-8568,-2.6233074
2023-10-21 23:44:57.046,16898,216220,192771,-9263,-2.836099025,-8682,-2.65821135
2023-10-21 23:44:57.046,16899,216189,192752,-9260,-2.8351805,-8705,-2.665253375
2023-10-21 23:44:57.046,16900,216155,192720,-9781,-2.994697675,-8827,-2.702606725
2023-10-21 23:44:57.046,16901,216134,192720,-9149,-2.801195075,-8904,-2.7261822
2023-10-21 23:44:57.046,16902,216098,192704,-8674,-2.65576195,-8879,-2.718527825
2023-10-21 23:44:57.078,16903,216061,192682,-9220,-2.8229335,-9003,-2.756493525
2023-10-21 23:44:57.078,16904,216022,192673,-9029,-2.764454075,-9203,-2.817728525
2023-10-21 23:44:57.079,16905,215968,192648,-8281,-2.535435175,-9234,-2.82721995
2023-10-21 23:44:57.079,16906,215912,192631,-8407,-2.574013225,-9222,-2.82354585
2023-10-21 23:44:57.079,16907,215886,192611,-8459,-2.589934325,-9283,-2.842222525
2023-10-21 23:44:57.079,16908,215836,192594,-7653,-2.343157275,-9288,-2.8437534
2023-10-21 23:44:57.079,16909,215791,192576,-7682,-2.35203635,-9283,-2.842222525
2023-10-21 23:44:57.108,16910,215758,192546,-8077,-2.472975475,-9382,-2.87253385
2023-10-21 23:44:57.108,16911,215743,192547,-7231,-2.213951425,-9459,-2.896109325
2023-10-21 23:44:57.108,16912,215722,192530,-6833,-2.092093775,-9420,-2.8841685
2023-10-21 23:44:57.108,16913,215705,192534,-7541,-2.308865675,-9410,-2.88110675
2023-10-21 23:44:57.108,16914,215725,192544,-7125,-2.181496875,-9463,-2.897334025
2023-10-21 23:44:57.108,16915,215728,192552,-6579,-2.014325325,-9489,-2.905294575
2023-10-21 23:44:57.108,16916,215756,192561,-7125,-2.181496875,-9505,-2.910193375
2023-10-21 23:44:57.139,16917,215792,192571,-7128,-2.1824154,-9526,-2.91662305
2023-10-21 23:44:57.139,16918,215845,192584,-6369,-1.950028575,-9528,-2.9172354
2023-10-21 23:44:57.139,16919,215883,192605,-6490,-1.98707575,-9509,-2.911418075
2023-10-21 23:44:57.139,16920,215913,192610,-6876,-2.1052593,-9364,-2.8670227
2023-10-21 23:44:57.139,16921,215965,192627,-6347,-1.943292725,-9191,-2.814054425
2023-10-21 23:44:57.139,16922,215995,192648,-5907,-1.808575725,-8922,-2.73169335
2023-10-21 23:44:57.139,16923,216034,192655,-6402,-1.96013235,-8697,-2.662803975
2023-10-21 23:44:57.139,16924,216064,192671,-6182,-1.89277385,-8541,-2.615040675
2023-10-21 23:44:57.139,16925,216097,192675,-5628,-1.7231529,-8274,-2.53329195
2023-10-21 23:44:57.171,16926,216113,192695,-6136,-1.8786898,-8037,-2.460728475
2023-10-21 23:44:57.172,16927,216129,192680,-6406,-1.96135705,-7915,-2.423375125
2023-10-21 23:44:57.172,16928,216125,192671,-5708,-1.7476469,-7661,-2.345606675
2023-10-21 23:44:57.172,16929,216130,192680,-5566,-1.70417005,-7379,-2.259265325
2023-10-21 23:44:57.172,16930,216115,192661,-6038,-1.84868465,-7320,-2.241201
2023-10-21 23:44:57.172,16931,216117,192676,-5637,-1.725908475,-7257,-2.221911975
2023-10-21 23:44:57.172,16932,216116,192679,-5507,-1.686105725,-7083,-2.168637525
2023-10-21 23:44:57.202,16933,216103,192660,-6059,-1.855114325,-7030,-2.15241025
2023-10-21 23:44:57.202,16934,216095,192661,-5819,-1.781632325,-7012,-2.1468991
2023-10-21 23:44:57.202,16935,216069,192646,-5119,-1.567309825,-6856,-2.0991358
2023-10-21 23:44:57.202,16936,216066,192650,-5569,-1.705088575,-6745,-2.065150375
2023-10-21 23:44:57.202,16937,216028,192646,-5652,-1.7305011,-6756,-2.0685183
2023-10-21 23:44:57.234,16938,216026,192648,-4934,-1.51066745,-6674,-2.04341195
2023-10-21 23:44:57.234,16939,216007,192620,-5121,-1.567922175,-6490,-1.98707575
2023-10-21 23:44:57.234,16940,216006,192624,-5614,-1.71886645,-6382,-1.95400885
2023-10-21 23:44:57.234,16941,216005,192621,-5087,-1.557512225,-6290,-1.92584075
2023-10-21 23:44:57.234,16942,216008,192629,-4837,-1.480968475,-6133,-1.877771275
2023-10-21 23:44:57.234,16943,216009,192631,-5285,-1.618134875,-6105,-1.869198375
2023-10-21 23:44:57.234,16944,216002,192624,-5084,-1.5565937,-6168,-1.8884874
2023-10-21 23:44:57.265,16945,216027,192630,-4703,-1.439941025,-6093,-1.865524275
2023-10-21 23:44:57.265,16946,216026,192630,-5032,-1.5406726,-5979,-1.830620325
2023-10-21 23:44:57.267,16947,216058,192660,-5179,-1.585680325,-5960,-1.824803
2023-10-21 23:44:57.267,16948,216075,192650,-4578,-1.40166915,-5931,-1.815923925
2023-10-21 23:44:57.267,16949,216096,192671,-4661,-1.427081675,-5901,-1.806738675
2023-10-21 23:44:57.267,16950,216124,192688,-5192,-1.5896606,-5916,-1.8113313
2023-10-21 23:44:57.296,16951,216149,192690,-4668,-1.4292249,-5911,-1.809800425
2023-10-21 23:44:57.296,16952,216173,192703,-4298,-1.31594015,-5848,-1.7905114
2023-10-21 23:44:57.296,16953,216224,192721,-4949,-1.515260075,-5762,-1.76418035
2023-10-21 23:44:57.296,16954,216253,192728,-4904,-1.5014822,-5727,-1.753464225
2023-10-21 23:44:57.296,16955,216280,192738,-4402,-1.34778235,-5640,-1.726827
2023-10-21 23:44:57.328,16956,216314,192747,-4839,-1.481580825,-5494,-1.68212545
2023-10-21 23:44:57.328,16957,216347,192763,-4818,-1.47515115,-5430,-1.66253025
2023-10-21 23:44:57.328,16958,216372,192782,-4295,-1.315021625,-5350,-1.63803625
2023-10-21 23:44:57.328,16959,216418,192793,-4386,-1.34288355,-5249,-1.607112575
2023-10-21 23:44:57.328,16960,216441,192809,-4835,-1.480356125,-5246,-1.60619405
2023-10-21 23:44:57.328,16961,216472,192810,-4423,-1.354212025,-5246,-1.60619405
2023-10-21 23:44:57.328,16962,216512,192823,-4199,-1.285628825,-5184,-1.5872112
2023-10-21 23:44:57.359,16963,216519,192837,-4710,-1.44208425,-5139,-1.573433325
2023-10-21 23:44:57.359,16964,216538,192840,-4542,-1.39064685,-5124,-1.5688407
2023-10-21 23:44:57.359,16965,216593,192856,-4003,-1.225618525,-5109,-1.564248075
2023-10-21 23:44:57.359,16966,216598,192851,-4388,-1.3434959,-5063,-1.550164025
2023-10-21 23:44:57.359,16967,216627,192861,-4578,-1.40166915,-5032,-1.5406726
2023-10-21 23:44:57.359,16968,216676,192887,-4129,-1.264196575,-4995,-1.529344125
2023-10-21 23:44:57.389,16969,216711,192893,-4183,-1.280730025,-4951,-1.515872425
2023-10-21 23:44:57.389,16970,216738,192905,-4684,-1.4341237,-4915,-1.504850125
2023-10-21 23:44:57.389,16971,216787,192924,-4280,-1.310429,-4879,-1.493827825
2023-10-21 23:44:57.389,16972,216806,192937,-4018,-1.23021115,-4836,-1.4806623
2023-10-21 23:44:57.389,16973,216843,192944,-4520,-1.383911,-4805,-1.471170875
2023-10-21 23:44:57.421,16974,216886,192964,-4483,-1.372582525,-4783,-1.464435025
2023-10-21 23:44:57.421,16975,216890,192970,-4017,-1.229904975,-4754,-1.45555595
2023-10-21 23:44:57.421,16976,216948,192981,-4262,-1.30491785,-4727,-1.447289225
2023-10-21 23:44:57.421,16977,216983,193002,-4442,-1.36002935,-4708,-1.4414719
2023-10-21 23:44:57.421,16978,217004,193017,-3979,-1.218270325,-4674,-1.43106195
2023-10-21 23:44:57.421,16979,217043,193021,-4029,-1.233579075,-4635,-1.419121125
2023-10-21 23:44:57.453,16980,217076,193020,-4508,-1.3802369,-4612,-1.4120791
2023-10-21 23:44:57.453,16981,217090,193025,-4208,-1.2883844,-4593,-1.406261775
2023-10-21 23:44:57.453,16982,217127,193053,-3955,-1.210922125,-4563,-1.397076525
2023-10-21 23:44:57.453,16983,217146,193060,-4483,-1.372582525,-4536,-1.3888098
2023-10-21 23:44:57.453,16984,217191,193072,-4405,-1.348700875,-4509,-1.380543075
2023-10-21 23:44:57.454,16985,217196,193080,-3829,-1.172344075,-4471,-1.368908425
2023-10-21 23:44:57.485,16986,217228,193079,-4417,-1.352374975,-4437,-1.358498475
2023-10-21 23:44:57.485,16987,217244,193082,-4552,-1.3937086,-4418,-1.35268115
2023-10-21 23:44:57.485,16988,217268,193094,-3874,-1.18612195,-4398,-1.34655765
2023-10-21 23:44:57.485,16989,217285,193095,-3998,-1.22408765,-4378,-1.34043415
2023-10-21 23:44:57.515,16990,217315,193111,-4455,-1.364009625,-4373,-1.338903275
2023-10-21 23:44:57.515,16991,217337,193122,-4157,-1.272769475,-4367,-1.337066225
2023-10-21 23:44:57.515,16992,217383,193128,-3721,-1.139277175,-4349,-1.331555075
2023-10-21 23:44:57.546,16993,217397,193141,-4258,-1.30369315,-4335,-1.327268625
2023-10-21 23:44:57.546,16994,217425,193143,-4096,-1.2540928,-4326,-1.32451305
2023-10-21 23:44:57.546,16995,217439,193149,-3588,-1.0985559,-4308,-1.3190019
2023-10-21 23:44:57.546,16996,217474,193160,-4116,-1.2602163,-4294,-1.31471545
2023-10-21 23:44:57.546,16997,217497,193171,-4083,-1.250112525,-4292,-1.3141031
2023-10-21 23:44:57.546,16998,217527,193179,-3597,-1.101311475,-4282,-1.31104135
2023-10-21 23:44:57.577,16999,217585,193213,-3758,-1.15060565,-4265,-1.305836375
2023-10-21 23:44:57.577,17000,217596,193212,-4239,-1.297875825,-4259,-1.303999325
2023-10-21 23:44:57.577,17001,217647,193225,-3831,-1.172956425,-4252,-1.3018561
2023-10-21 23:44:57.577,17002,217663,193241,-3685,-1.128254875,-4237,-1.297263475
2023-10-21 23:44:57.577,17003,217699,193246,-4161,-1.273994175,-4234,-1.29634495
2023-10-21 23:44:57.577,17004,217737,193257,-4037,-1.236028475,-4242,-1.29879435
2023-10-21 23:44:57.577,17005,217764,193286,-3726,-1.14080805,-4238,-1.29756965
2023-10-21 23:44:57.577,17006,217808,193295,-4104,-1.2565422,-4231,-1.295426425
2023-10-21 23:44:57.623,17007,217836,193307,-4307,-1.318695725,-4233,-1.296038775
2023-10-21 23:44:57.623,17008,217875,193328,-3745,-1.146625375,-4228,-1.2945079
2023-10-21 23:44:57.623,17009,217917,193347,-4192,-1.2834856,-4213,-1.289915275
2023-10-21 23:44:57.623,17010,217934,193351,-4780,-1.4635165,-4204,-1.2871597
2023-10-21 23:44:57.623,17011,217964,193362,-4492,-1.3753381,-4188,-1.2822609
2023-10-21 23:44:57.623,17012,217980,193357,-4654,-1.42493845,-4158,-1.27307565
2023-10-21 23:44:57.623,17013,218025,193369,-5504,-1.6851872,-4134,-1.26572745
2023-10-21 23:44:57.623,17014,218064,193378,-5474,-1.67600195,-4107,-1.257460725
2023-10-21 23:44:57.654,17015,218071,193400,-4733,-1.449126275,-4065,-1.244601375
2023-10-21 23:44:57.654,17016,218109,193406,-4702,-1.43963485,-4029,-1.233579075
2023-10-21 23:44:57.654,17017,218137,193408,-4307,-1.318695725,-4009,-1.227455575
2023-10-21 23:44:57.654,17018,218149,193430,-3381,-1.035177675,-3985,-1.220107375
2023-10-21 23:44:57.654,17019,218177,193436,-3517,-1.076817475,-3958,-1.21184065
2023-10-21 23:44:57.654,17020,218200,193438,-4108,-1.2577669,-3945,-1.207860375
2023-10-21 23:44:57.654,17021,218230,193446,-3565,-1.091513875,-3937,-1.205410975
2023-10-21 23:44:57.654,17022,218251,193451,-3563,-1.090901525,-3926,-1.20204305
2023-10-21 23:44:57.654,17023,218281,193467,-4407,-1.349313225,-3929,-1.202961575
2023-10-21 23:44:57.685,17024,218300,193468,-4078,-1.24858165,-3939,-1.206023325
2023-10-21 23:44:57.685,17025,218324,193489,-3451,-1.056609925,-3946,-1.20816655
2023-10-21 23:44:57.685,17026,218350,193489,-4031,-1.234191425,-3966,-1.21429005
2023-10-21 23:44:57.685,17027,218380,193513,-4165,-1.275218875,-4010,-1.22776175
2023-10-21 23:44:57.685,17028,218422,193509,-3575,-1.094575625,-4152,-1.2712386
2023-10-21 23:44:57.685,17029,218442,193531,-3839,-1.175405825,-4396,-1.3459453
2023-10-21 23:44:57.685,17030,218491,193544,-4187,-1.281954725,-4772,-1.4610671
2023-10-21 23:44:57.685,17031,218521,193553,-3840,-1.175712,-5078,-1.55475665
2023-10-21 23:44:57.716,17032,218563,193563,-3577,-1.095187975,-5093,-1.559349275
2023-10-21 23:44:57.716,17033,218592,193582,-4142,-1.26817685,-4968,-1.5210774
2023-10-21 23:44:57.716,17034,218640,193590,-4072,-1.2467446,-4718,-1.44453365
2023-10-21 23:44:57.716,17035,218674,193624,-3585,-1.097637375,-4299,-1.316246325
2023-10-21 23:44:57.716,17036,218729,193625,-4205,-1.287465875,-3951,-1.209697425
2023-10-21 23:44:57.716,17037,218757,193655,-4327,-1.324819225,-3792,-1.1610156
2023-10-21 23:44:57.747,17038,218818,193664,-3643,-1.115395525,-3633,-1.112333775
2023-10-21 23:44:57.747,17039,218845,193689,-3705,-1.134378375,-3589,-1.098862075
2023-10-21 23:44:57.747,17040,218894,193686,-4415,-1.351762625,-3829,-1.172344075
2023-10-21 23:44:57.747,17041,218917,193713,-3962,-1.21306535,-4024,-1.2320482
2023-10-21 23:44:57.747,17042,218964,193713,-3790,-1.16040325,-4006,-1.22653705
2023-10-21 23:44:57.747,17043,218996,193751,-4077,-1.248275475,-4010,-1.22776175
2023-10-21 23:44:57.747,17044,219034,193739,-3867,-1.183978725,-3995,-1.223169125
2023-10-21 23:44:57.747,17045,219053,193770,-3503,-1.072531025,-3867,-1.183978725
2023-10-21 23:44:57.779,17046,219083,193756,-3917,-1.199287475,-3822,-1.17020085
2023-10-21 23:44:57.779,17047,219095,193763,-4106,-1.25715455,-3842,-1.17632435
2023-10-21 23:44:57.779,17048,219118,193763,-3574,-1.09426945,-3864,-1.1830602
2023-10-21 23:44:57.779,17049,219130,193769,-3827,-1.171731725,-3881,-1.188265175
2023-10-21 23:44:57.779,17050,219108,193760,-4382,-1.34165885,-3920,-1.200206
2023-10-21 23:44:57.779,17051,219083,193747,-3891,-1.191326925,-3936,-1.2051048
2023-10-21 23:44:57.779,17052,219025,193693,-3764,-1.1524427,-3924,-1.2014307
2023-10-21 23:44:57.811,17053,218914,193658,-4202,-1.28654735,-3918,-1.19959365
2023-10-21 23:44:57.811,17054,218807,193607,-4131,-1.264808925,-3922,-1.20081835
2023-10-21 23:44:57.811,17055,218636,193520,-3780,-1.1573415,-3920,-1.200206
2023-10-21 23:44:57.811,17056,218447,193453,-4285,-1.311959875,-3929,-1.202961575
2023-10-21 23:44:57.811,17057,218253,193362,-4390,-1.34410825,-3953,-1.210309775
2023-10-21 23:44:57.811,17058,218022,193257,-4069,-1.245826075,-3970,-1.21551475
2023-10-21 23:44:57.811,17059,217774,193158,-4191,-1.283179425,-3974,-1.21673945
2023-10-21 23:44:57.811,17060,217501,193043,-4754,-1.45555595,-3977,-1.217657975
2023-10-21 23:44:57.811,17061,217223,192931,-4427,-1.355436725,-3972,-1.2161271
2023-10-21 23:44:57.826,17062,216945,192816,-4153,-1.271544775,-3958,-1.21184065
2023-10-21 23:44:57.826,17063,216662,192706,-4691,-1.436266925,-3956,-1.2112283
2023-10-21 23:44:57.826,17064,216391,192596,-4532,-1.3875851,-3953,-1.210309775
2023-10-21 23:44:57.826,17065,216138,192479,-3942,-1.20694185,-3933,-1.204186275
2023-10-21 23:44:57.826,17066,215882,192373,-4403,-1.348088525,-3915,-1.198675125
2023-10-21 23:44:57.826,17067,215665,192301,-4484,-1.3728887,-3914,-1.19836895
2023-10-21 23:44:57.826,17068,215438,192206,-3786,-1.15917855,-3909,-1.196838075
2023-10-21 23:44:57.826,17069,215250,192130,-3789,-1.160097075,-3902,-1.19469485
2023-10-21 23:44:57.826,17070,215089,192068,-4102,-1.25592985,-3911,-1.197450425
2023-10-21 23:44:57.872,17071,214935,192003,-3337,-1.021705975,-3925,-1.201736875
2023-10-21 23:44:57.872,17072,214825,191941,-3106,-0.95097955,-3937,-1.205410975
2023-10-21 23:44:57.872,17073,214703,191906,-3760,-1.151218,-3958,-1.21184065
2023-10-21 23:44:57.872,17074,214627,191884,-3491,-1.068856925,-3987,-1.220719725
2023-10-21 23:44:57.872,17075,214535,191854,-2881,-0.882090175,-4012,-1.2283741
2023-10-21 23:44:57.872,17076,214466,191823,-3160,-0.967513,-4051,-1.240314925
2023-10-21 23:44:57.872,17077,214419,191781,-3141,-0.961695675,-4107,-1.257460725
2023-10-21 23:44:57.903,17078,214359,191784,-2503,-0.766356025,-4189,-1.282567075
2023-10-21 23:44:57.903,17079,214334,191764,-2717,-0.831877475,-4241,-1.298488175
2023-10-21 23:44:57.903,17080,214296,191750,-3010,-0.92158675,-4293,-1.314409275
2023-10-21 23:44:57.903,17081,214287,191741,-2591,-0.793299425,-4330,-1.32573775
2023-10-21 23:44:57.935,17082,214256,191736,-2446,-0.74890405,-4311,-1.319920425
2023-10-21 23:44:57.935,17083,214235,191723,-2985,-0.913932375,-4328,-1.3251254
2023-10-21 23:44:57.935,17084,214219,191728,-2799,-0.856983825,-4353,-1.332779775
2023-10-21 23:44:57.935,17085,214228,191717,-2419,-0.740637325,-4354,-1.33308595
2023-10-21 23:44:57.935,17086,214203,191726,-2822,-0.86402585,-4340,-1.3287995
2023-10-21 23:44:57.967,17087,214181,191701,-3038,-0.93015965,-4195,-1.284404125
2023-10-21 23:44:57.967,17088,214155,191691,-2403,-0.735738525,-3927,-1.202349225
2023-10-21 23:44:57.967,17089,214138,191686,-2592,-0.7936056,-3651,-1.117844925
2023-10-21 23:44:57.967,17090,214121,191663,-3153,-0.965369775,-3578,-1.09549415
2023-10-21 23:44:57.967,17091,214077,191662,-2808,-0.8597394,-3520,-1.077736
2023-10-21 23:44:57.998,17092,214050,191651,-2535,-0.776153625,-3348,-1.0250739
2023-10-21 23:44:57.998,17093,214018,191634,-3135,-0.959858625,-3244,-0.9932317
2023-10-21 23:44:57.998,17094,213994,191619,-3159,-0.967206825,-3184,-0.9748612
2023-10-21 23:44:57.998,17095,213960,191616,-2608,-0.7985044,-3030,-0.92771025
2023-10-21 23:44:57.998,17096,213914,191591,-2997,-0.917606475,-2912,-0.8915816
2023-10-21 23:44:57.998,17097,213870,191577,-3119,-0.954959825,-2882,-0.88239635
2023-10-21 23:44:57.998,17098,213872,191573,-2698,-0.82606015,-2797,-0.856371475
2023-10-21 23:44:58.044,17099,213840,191556,-2779,-0.850860325,-2717,-0.831877475
2023-10-21 23:44:58.044,17100,213825,191554,-3299,-1.010071325,-2769,-0.847798575
2023-10-21 23:44:58.044,17101,213815,191545,-3036,-0.9295473,-2818,-0.86280115
2023-10-21 23:44:58.044,17102,213816,191545,-2777,-0.850247975,-2791,-0.854534425
2023-10-21 23:44:58.044,17103,213822,191548,-3392,-1.0385456,-2801,-0.857596175
2023-10-21 23:44:58.044,17104,213859,191563,-3159,-0.967206825,-2789,-0.853922075
2023-10-21 23:44:58.076,17105,213870,191567,-2593,-0.793911775,-2752,-0.8425936
2023-10-21 23:44:58.076,17106,213919,191593,-3188,-0.9760859,-2726,-0.83463305
2023-10-21 23:44:58.076,17107,213948,191596,-3360,-1.028748,-2724,-0.8340207
2023-10-21 23:44:58.076,17108,214010,191621,-2827,-0.865556725,-2728,-0.8352454
2023-10-21 23:44:58.076,17109,214051,191635,-2953,-0.904134775,-2736,-0.8376948
2023-10-21 23:44:58.108,17110,214123,191655,-3511,-1.074980425,-2760,-0.845043
2023-10-21 23:44:58.108,17111,214163,191689,-2998,-0.91791265,-2784,-0.8523912
2023-10-21 23:44:58.108,17112,214227,191705,-2681,-0.820855175,-2799,-0.856983825
2023-10-21 23:44:58.108,17113,214262,191727,-3390,-1.03793325,-2819,-0.863107325
2023-10-21 23:44:58.108,17114,214315,191741,-3242,-0.99261935,-2842,-0.87014935
2023-10-21 23:44:58.108,17115,214350,191750,-2507,-0.767580725,-2854,-0.87382345
2023-10-21 23:44:58.140,17116,214383,191774,-3028,-0.9270979,-2870,-0.87872225
2023-10-21 23:44:58.140,17117,214414,191764,-3209,-0.982515575,-2898,-0.88729515
2023-10-21 23:44:58.140,17118,214445,191791,-2577,-0.789012975,-2917,-0.893112475
2023-10-21 23:44:58.140,17119,214452,191796,-2684,-0.8217737,-2931,-0.897398925
2023-10-21 23:44:58.140,17120,214474,191801,-3163,-0.968431525,-2958,-0.90566565
2023-10-21 23:44:58.140,17121,214477,191797,-2734,-0.83708245,-2982,-0.91301385
2023-10-21 23:44:58.171,17122,214476,191810,-2504,-0.7666622,-2989,-0.915157075
2023-10-21 23:44:58.171,17123,214472,191789,-2950,-0.90321625,-3000,-0.918525
2023-10-21 23:44:58.171,17124,214466,191782,-2668,-0.8168749,-3016,-0.9234238
2023-10-21 23:44:58.171,17125,214461,191800,-2321,-0.710632175,-3023,-0.925567025
2023-10-21 23:44:58.171,17126,214445,191784,-2679,-0.820242825,-3032,-0.9283226
2023-10-21 23:44:58.171,17127,214461,191785,-2927,-0.896174225,-3055,-0.935364625
2023-10-21 23:44:58.171,17128,214467,191792,-2350,-0.71951125,-3071,-0.940263425
2023-10-21 23:44:58.203,17129,214464,191775,-2498,-0.76482515,-3075,-0.941488125
2023-10-21 23:44:58.203,17130,214465,191774,-3003,-0.919443525,-3085,-0.944549875
2023-10-21 23:44:58.203,17131,214482,191787,-2654,-0.81258845,-3089,-0.945774575
2023-10-21 23:44:58.203,17132,214482,191807,-2402,-0.73543235,-3074,-0.94118195
2023-10-21 23:44:58.203,17133,214516,191803,-2847,-0.871680225,-3065,-0.938426375
2023-10-21 23:44:58.203,17134,214539,191826,-2717,-0.831877475,-3059,-0.936589325
2023-10-21 23:44:58.203,17135,214560,191828,-2263,-0.692874025,-3039,-0.930465825
2023-10-21 23:44:58.232,17136,214597,191835,-2889,-0.884539575,-3018,-0.92403615
2023-10-21 23:44:58.232,17137,214645,191861,-3012,-0.9221991,-3005,-0.920055875
2023-10-21 23:44:58.232,17138,214665,191874,-2413,-0.738800275,-2978,-0.91178915
2023-10-21 23:44:58.232,17139,214716,191886,-2424,-0.7421682,-2943,-0.901073025
2023-10-21 23:44:58.232,17140,214770,191899,-2969,-0.909033575,-2916,-0.8928063
2023-10-21 23:44:58.232,17141,214791,191929,-2583,-0.790850025,-2881,-0.882090175
2023-10-21 23:44:58.278,17142,214830,191934,-2521,-0.771867175,-2835,-0.868006125
2023-10-21 23:44:58.278,17143,214885,191960,-3012,-0.9221991,-2802,-0.85790235
2023-10-21 23:44:58.278,17144,214927,191971,-2987,-0.914544725,-2778,-0.85055415
2023-10-21 23:44:58.278,17145,214990,191993,-2401,-0.735126175,-2743,-0.839838025
2023-10-21 23:44:58.278,17146,215023,192013,-2748,-0.8413689,-2712,-0.8303466
2023-10-21 23:44:58.278,17147,215097,192033,-2988,-0.9148509,-2699,-0.826366325
2023-10-21 23:44:58.278,17148,215139,192049,-2604,-0.7972797,-2684,-0.8217737
2023-10-21 23:44:58.278,17149,215180,192078,-2724,-0.8340207,-2667,-0.816568725
2023-10-21 23:44:58.310,17150,215238,192094,-3277,-1.003335475,-2661,-0.814731675
2023-10-21 23:44:58.310,17151,215293,192110,-2840,-0.869537,-2654,-0.81258845
2023-10-21 23:44:58.310,17152,215350,192143,-2585,-0.791462375,-2642,-0.80891435
2023-10-21 23:44:58.310,17153,215408,192160,-3314,-1.01466395,-2644,-0.8095267
2023-10-21 23:44:58.310,17154,215462,192170,-3157,-0.966594475,-2657,-0.813506975
2023-10-21 23:44:58.310,17155,215502,192187,-2568,-0.7862574,-2658,-0.81381315
2023-10-21 23:44:58.341,17156,215539,192228,-2874,-0.87994695,-2660,-0.8144255
2023-10-21 23:44:58.341,17157,215608,192228,-3504,-1.0728372,-2671,-0.817793425
2023-10-21 23:44:58.341,17158,215645,192254,-2824,-0.8646382,-2674,-0.81871195
2023-10-21 23:44:58.341,17159,215680,192260,-2736,-0.8376948,-2670,-0.81748725
2023-10-21 23:44:58.341,17160,215720,192295,-3245,-0.993537875,-2677,-0.819630475
2023-10-21 23:44:58.341,17161,215763,192290,-2993,-0.916381775,-2687,-0.822692225
2023-10-21 23:44:58.341,17162,215768,192292,-2858,-0.87504815,-2692,-0.8242231
2023-10-21 23:44:58.341,17163,215804,192310,-3318,-1.01588865,-2705,-0.828203375
2023-10-21 23:44:58.371,17164,215824,192327,-3093,-0.946999275,-2721,-0.833102175
2023-10-21 23:44:58.371,17165,215847,192334,-2668,-0.8168749,-2725,-0.834326875
2023-10-21 23:44:58.371,17166,215861,192343,-3125,-0.956796875,-2734,-0.83708245
2023-10-21 23:44:58.371,17167,215885,192347,-3318,-1.01588865,-2757,-0.844124475
2023-10-21 23:44:58.371,17168,215894,192328,-2756,-0.8438183,-2774,-0.84932945
2023-10-21 23:44:58.371,17169,215927,192357,-2825,-0.864944375,-2788,-0.8536159
2023-10-21 23:44:58.371,17170,215927,192352,-3328,-1.0189504,-2818,-0.86280115
2023-10-21 23:44:58.403,17171,215939,192348,-2923,-0.894949525,-2850,-0.87259875
2023-10-21 23:44:58.403,17172,215964,192355,-2767,-0.847186225,-2866,-0.87749755
2023-10-21 23:44:58.403,17173,215971,192369,-3218,-0.98527115,-2883,-0.882702525
2023-10-21 23:44:58.403,17174,216001,192368,-3105,-0.950673375,-2909,-0.890663075
2023-10-21 23:44:58.403,17175,216004,192371,-2838,-0.86892465,-2926,-0.89586805
2023-10-21 23:44:58.434,17176,216008,192373,-3098,-0.94853015,-2939,-0.899848325
2023-10-21 23:44:58.434,17177,216031,192374,-3286,-1.00609105,-2961,-0.906584175
2023-10-21 23:44:58.434,17178,216063,192385,-2710,-0.82973425,-2977,-0.911482975
2023-10-21 23:44:58.434,17179,216089,192403,-2726,-0.83463305,-2991,-0.915769425
2023-10-21 23:44:58.434,17180,216111,192394,-3360,-1.028748,-3012,-0.9221991
2023-10-21 23:44:58.434,17181,216119,192410,-2970,-0.90933975,-3018,-0.92403615
2023-10-21 23:44:58.434,17182,216160,192413,-2752,-0.8425936,-3007,-0.920668225
2023-10-21 23:44:58.434,17183,216177,192431,-3334,-1.02078745,-3011,-0.921892925
2023-10-21 23:44:58.464,17184,216209,192433,-3048,-0.9332214,-3027,-0.926791725
2023-10-21 23:44:58.464,17185,216231,192439,-2449,-0.749822575,-3029,-0.927404075
2023-10-21 23:44:58.464,17186,216261,192458,-3026,-0.92648555,-3025,-0.926179375
2023-10-21 23:44:58.464,17187,216282,192460,-3278,-1.00364165,-3031,-0.928016425
2023-10-21 23:44:58.464,17188,216326,192479,-2612,-0.7997291,-3031,-0.928016425
2023-10-21 23:44:58.464,17189,216346,192489,-2612,-0.7997291,-3023,-0.925567025
2023-10-21 23:44:58.496,17190,216374,192496,-3199,-0.979453825,-3021,-0.924954675
2023-10-21 23:44:58.496,17191,216389,192516,-2967,-0.908421225,-3020,-0.9246485
2023-10-21 23:44:58.496,17192,216418,192515,-2754,-0.84320595,-3016,-0.9234238
2023-10-21 23:44:58.496,17193,216448,192535,-3060,-0.9368955,-3023,-0.925567025
2023-10-21 23:44:58.496,17194,216460,192530,-3045,-0.932302875,-3030,-0.92771025
2023-10-21 23:44:58.496,17195,216483,192542,-2563,-0.784726525,-3020,-0.9246485
2023-10-21 23:44:58.496,17196,216514,192537,-2925,-0.895561875,-3010,-0.92158675
2023-10-21 23:44:58.496,17197,216538,192567,-3228,-0.9883329,-3014,-0.92281145
2023-10-21 23:44:58.528,17198,216568,192576,-2762,-0.84565535,-3014,-0.92281145
2023-10-21 23:44:58.528,17199,216603,192591,-2637,-0.807383475,-3010,-0.92158675
2023-10-21 23:44:58.528,17200,216624,192593,-3183,-0.974555025,-3017,-0.923729975
2023-10-21 23:44:58.528,17201,216662,192619,-2940,-0.9001545,-3019,-0.924342325
2023-10-21 23:44:58.528,17202,216675,192620,-2977,-0.911482975,-3006,-0.92036205
2023-10-21 23:44:58.528,17203,216724,192643,-3714,-1.13713395,-2998,-0.91791265
2023-10-21 23:44:58.528,17204,216751,192640,-3853,-1.179692275,-2994,-0.91668795
2023-10-21 23:44:58.558,17205,216787,192648,-3695,-1.131316625,-2976,-0.9111768
2023-10-21 23:44:58.558,17206,216806,192664,-3923,-1.201124525,-2957,-0.905359475
2023-10-21 23:44:58.558,17207,216833,192671,-3796,-1.1622403,-2951,-0.903522425
2023-10-21 23:44:58.558,17208,216860,192690,-2623,-0.803097025,-2944,-0.9013792
2023-10-21 23:44:58.558,17209,216913,192713,-2277,-0.697160475,-2936,-0.8989298
2023-10-21 23:44:58.589,17210,216936,192725,-2674,-0.81871195,-2936,-0.8989298
2023-10-21 23:44:58.589,17211,216978,192734,-2416,-0.7397188,-2931,-0.897398925
2023-10-21 23:44:58.589,17212,217004,192741,-2325,-0.711856875,-2915,-0.892500125
2023-10-21 23:44:58.589,17213,217031,192763,-2806,-0.85912705,-2911,-0.891275425
2023-10-21 23:44:58.621,17214,217076,192759,-2766,-0.84688005,-2914,-0.89219395
2023-10-21 23:44:58.621,17215,217107,192774,-2290,-0.70114075,-2907,-0.890050725
2023-10-21 23:44:58.621,17216,217138,192778,-2647,-0.810445225,-2903,-0.888826025
2023-10-21 23:44:58.621,17217,217179,192803,-3046,-0.93260905,-2914,-0.89219395
2023-10-21 23:44:58.621,17218,217196,192806,-2429,-0.743699075,-2923,-0.894949525
2023-10-21 23:44:58.621,17219,217221,192815,-2506,-0.76727455,-2930,-0.89709275
2023-10-21 23:44:58.652,17220,217270,192819,-2910,-0.89096925,-2959,-0.905971825
2023-10-21 23:44:58.652,17221,217278,192826,-2653,-0.812282275,-3200,-0.97976
2023-10-21 23:44:58.652,17222,217322,192849,-2318,-0.70971365,-3478,-1.06487665
2023-10-21 23:44:58.652,17223,217337,192860,-2861,-0.875966675,-3678,-1.12611165
2023-10-21 23:44:58.652,17224,217385,192863,-2919,-0.893724825,-3730,-1.14203275
2023-10-21 23:44:58.652,17225,217404,192871,-2416,-0.7397188,-3461,-1.059671675
2023-10-21 23:44:58.684,17226,217442,192898,-2631,-0.805546425,-3094,-0.94730545
2023-10-21 23:44:58.684,17227,217477,192915,-2977,-0.911482975,-2839,-0.869230825
2023-10-21 23:44:58.684,17228,217512,192910,-2605,-0.797585875,-2589,-0.792687075
2023-10-21 23:44:58.684,17229,217512,192919,-2481,-0.759620175,-2384,-0.7299212
2023-10-21 23:44:58.684,17230,217555,192947,-2882,-0.88239635,-2401,-0.735126175
2023-10-21 23:44:58.684,17231,217594,192942,-2665,-0.815956375,-2524,-0.7727857
2023-10-21 23:44:58.684,17232,217615,192954,-2346,-0.71828655,-2596,-0.7948303
2023-10-21 23:44:58.716,17233,217626,192965,-2903,-0.888826025,-2721,-0.833102175
2023-10-21 23:44:58.716,17234,217661,192952,-2919,-0.893724825,-2830,-0.86647525
2023-10-21 23:44:58.716,17235,217677,192972,-2400,-0.73482,-2724,-0.8340207
2023-10-21 23:44:58.716,17236,217693,192977,-2908,-0.8903569,-2599,-0.795748825
2023-10-21 23:44:58.716,17237,217724,192987,-3203,-0.980678525,-2583,-0.790850025
2023-10-21 23:44:58.716,17238,217757,192989,-2504,-0.7666622,-2573,-0.787788275
2023-10-21 23:44:58.716,17239,217770,192996,-2650,-0.81136375,-2583,-0.790850025
2023-10-21 23:44:58.748,17240,217774,192987,-3264,-0.9993552,-2620,-0.8021785
2023-10-21 23:44:58.748,17241,217797,192993,-2790,-0.85422825,-2660,-0.8144255
2023-10-21 23:44:58.748,17242,217778,192980,-2437,-0.746148475,-2677,-0.819630475
2023-10-21 23:44:58.748,17243,217733,192959,-2963,-0.907196525,-2681,-0.820855175
2023-10-21 23:44:58.748,17244,217674,192946,-2934,-0.89831745,-2679,-0.820242825
2023-10-21 23:44:58.778,17245,217608,192899,-2263,-0.692874025,-2667,-0.816568725
2023-10-21 23:44:58.778,17246,217482,192847,-2496,-0.7642128,-2664,-0.8156502
2023-10-21 23:44:58.778,17247,217341,192780,-2735,-0.837388625,-2679,-0.820242825
2023-10-21 23:44:58.778,17248,217200,192692,-2200,-0.673585,-2690,-0.82361075
2023-10-21 23:44:58.778,17249,217006,192623,-2076,-0.6356193,-2689,-0.823304575
2023-10-21 23:44:58.778,17250,216803,192538,-2478,-0.75870165,-2690,-0.82361075
2023-10-21 23:44:58.778,17251,216574,192446,-2283,-0.698997525,-2689,-0.823304575
2023-10-21 23:44:58.808,17252,216344,192327,-2092,-0.6405181,-2680,-0.820549
2023-10-21 23:44:58.808,17253,216121,192236,-2513,-0.769417775,-2687,-0.822692225
2023-10-21 23:44:58.808,17254,215909,192151,-2542,-0.77829685,-2713,-0.830652775
2023-10-21 23:44:58.808,17255,215656,192051,-2013,-0.616330275,-2728,-0.8352454
2023-10-21 23:44:58.808,17256,215453,191967,-2268,-0.6944049,-2736,-0.8376948
2023-10-21 23:44:58.808,17257,215263,191872,-2483,-0.760232525,-2754,-0.84320595
2023-10-21 23:44:58.840,17258,215062,191820,-2160,-0.661338,-2767,-0.847186225
2023-10-21 23:44:58.840,17259,214879,191731,-2220,-0.6797085,-2772,-0.8487171
2023-10-21 23:44:58.840,17260,214740,191679,-2566,-0.78564505,-2787,-0.853309725
2023-10-21 23:44:58.840,17261,214600,191624,-2120,-0.649091,-2803,-0.858208525
2023-10-21 23:44:58.840,17262,214466,191590,-1794,-0.54927795,-2800,-0.85729
2023-10-21 23:44:58.840,17263,214378,191536,-2378,-0.72808415,-2791,-0.854534425
2023-10-21 23:44:58.840,17264,214312,191507,-2084,-0.6380687,-2773,-0.849023275
2023-10-21 23:44:58.872,17265,214249,191493,-1609,-0.492635575,-2732,-0.8364701
2023-10-21 23:44:58.872,17266,214187,191482,-1904,-0.5829572,-2552,-0.7813586
2023-10-21 23:44:58.872,17267,214166,191473,-2014,-0.61663645,-2456,-0.7519658
2023-10-21 23:44:58.872,17268,214153,191471,-1631,-0.499371425,-2420,-0.7409435
2023-10-21 23:44:58.872,17269,214142,191460,-1557,-0.476714475,-2382,-0.72930885
2023-10-21 23:44:58.872,17270,214151,191462,-2016,-0.6172488,-2404,-0.7360447
2023-10-21 23:44:58.872,17271,214151,191473,-1778,-0.54437915,-2423,-0.741862025
2023-10-21 23:44:58.902,17272,214145,191483,-1483,-0.454057525,-2401,-0.735126175
2023-10-21 23:44:58.902,17273,214165,191496,-2030,-0.62153525,-2364,-0.7237977
2023-10-21 23:44:58.902,17274,214190,191485,-2160,-0.661338,-2340,-0.7164495
2023-10-21 23:44:58.902,17275,214187,191498,-1669,-0.511006075,-2316,-0.7091013
2023-10-21 23:44:58.902,17276,214192,191507,-1917,-0.586937475,-2302,-0.70481485
2023-10-21 23:44:58.902,17277,214187,191504,-2188,-0.6699109,-2305,-0.705733375
2023-10-21 23:44:58.934,17278,214199,191500,-1859,-0.569179325,-2303,-0.705121025
2023-10-21 23:44:58.934,17279,214199,191481,-1882,-0.57622135,-2290,-0.70114075
2023-10-21 23:44:58.934,17280,214184,191482,-2233,-0.683688775,-2281,-0.698385175
2023-10-21 23:44:58.934,17281,214172,191468,-2117,-0.648172475,-2265,-0.693486375
2023-10-21 23:44:58.934,17282,214144,191468,-1838,-0.56274965,-2228,-0.6821579
2023-10-21 23:44:58.934,17283,214124,191474,-2231,-0.683076425,-2189,-0.670217075
2023-10-21 23:44:58.934,17284,214108,191447,-2066,-0.63255755,-2094,-0.64113045
2023-10-21 23:44:58.934,17285,214068,191442,-1827,-0.559381725,-1989,-0.608982075
2023-10-21 23:44:58.965,17286,214051,191429,-2174,-0.66562445,-1896,-0.5805078
2023-10-21 23:44:58.965,17287,214011,191396,-2346,-0.71828655,-1896,-0.5805078
2023-10-21 23:44:58.965,17288,213962,191396,-1909,-0.584488075,-1896,-0.5805078
2023-10-21 23:44:58.965,17289,213952,191388,-1987,-0.608369725,-1871,-0.572853425
2023-10-21 23:44:58.965,17290,213918,191376,-2442,-0.74767935,-1874,-0.57377195
2023-10-21 23:44:58.965,17291,213897,191352,-1980,-0.6062265,-1851,-0.566729925
2023-10-21 23:44:58.997,17292,213881,191356,-1729,-0.529376575,-1829,-0.559994075
2023-10-21 23:44:58.997,17293,213881,191363,-2161,-0.661644175,-1823,-0.558157025
2023-10-21 23:44:58.997,17294,213862,191355,-1980,-0.6062265,-1833,-0.561218775
2023-10-21 23:44:58.997,17295,213891,191360,-1669,-0.511006075,-1844,-0.5645867
2023-10-21 23:44:58.997,17296,213915,191372,-2094,-0.64113045,-1861,-0.569791675
2023-10-21 23:44:58.997,17297,213958,191385,-2240,-0.685832,-1889,-0.578364575
2023-10-21 23:44:58.997,17298,213991,191406,-1840,-0.563362,-1915,-0.586325125
2023-10-21 23:44:58.997,17299,214046,191431,-1903,-0.582651025,-1938,-0.59336715
2023-10-21 23:44:59.027,17300,214093,191446,-2314,-0.70848895,-1969,-0.602858575
2023-10-21 23:44:59.027,17301,214146,191477,-2091,-0.640211925,-1995,-0.610819125
2023-10-21 23:44:59.027,17302,214214,191507,-1865,-0.571016375,-2007,-0.614493225
2023-10-21 23:44:59.027,17303,214275,191514,-2361,-0.722879175,-2023,-0.619392025
2023-10-21 23:44:59.027,17304,214320,191529,-2230,-0.68277025,-2044,-0.6258217
2023-10-21 23:44:59.027,17305,214373,191577,-1774,-0.54315445,-2052,-0.6282711
2023-10-21 23:44:59.027,17306,214415,191561,-2268,-0.6944049,-2058,-0.63010815
2023-10-21 23:44:59.060,17307,214433,191608,-2426,-0.74278055,-2074,-0.63500695
2023-10-21 23:44:59.060,17308,214476,191602,-2042,-0.62520935,-2084,-0.6380687
2023-10-21 23:44:59.060,17309,214504,191613,-2147,-0.657357725,-2082,-0.63745635
2023-10-21 23:44:59.060,17310,214510,191629,-2559,-0.783501825,-2081,-0.637150175
2023-10-21 23:44:59.060,17311,214549,191634,-2275,-0.696548125,-2074,-0.63500695
2023-10-21 23:44:59.091,17312,214565,191632,-2163,-0.662256525,-2057,-0.629801975
2023-10-21 23:44:59.091,17313,214578,191626,-2564,-0.7850327,-2045,-0.626127875
2023-10-21 23:44:59.091,17314,214559,191625,-2532,-0.7752351,-2039,-0.624290825
2023-10-21 23:44:59.091,17315,214570,191647,-2191,-0.670829425,-2028,-0.6209229
2023-10-21 23:44:59.123,17316,214597,191649,-2414,-0.73910645,-2020,-0.6184735
2023-10-21 23:44:59.123,17317,214587,191657,-2665,-0.815956375,-2022,-0.61908585
2023-10-21 23:44:59.123,17318,214614,191663,-2264,-0.6931802,-2019,-0.618167325
2023-10-21 23:44:59.123,17319,214622,191654,-2276,-0.6968543,-2013,-0.616330275
2023-10-21 23:44:59.123,17320,214635,191676,-2741,-0.839225675,-2020,-0.6184735
2023-10-21 23:44:59.123,17321,214630,191664,-2413,-0.738800275,-2031,-0.621841425
2023-10-21 23:44:59.153,17322,214649,191669,-2264,-0.6931802,-2041,-0.624903175
2023-10-21 23:44:59.153,17323,214639,191669,-2879,-0.881477825,-2062,-0.63133285
2023-10-21 23:44:59.153,17324,214685,191682,-2748,-0.8413689,-2090,-0.63990575
2023-10-21 23:44:59.153,17325,214680,191688,-2269,-0.694711075,-2109,-0.645723075
2023-10-21 23:44:59.153,17326,214705,191708,-2439,-0.746760825,-2126,-0.65092805
2023-10-21 23:44:59.153,17327,214732,191715,-2934,-0.89831745,-2151,-0.658582425
2023-10-21 23:44:59.185,17328,214764,191727,-2502,-0.76604985,-2172,-0.6650121
2023-10-21 23:44:59.185,17329,214782,191713,-2473,-0.757170775,-2189,-0.670217075
2023-10-21 23:44:59.185,17330,214832,191743,-2963,-0.907196525,-2218,-0.67909615
2023-10-21 23:44:59.185,17331,214846,191765,-2725,-0.834326875,-2248,-0.6882814
2023-10-21 23:44:59.185,17332,214887,191790,-2557,-0.782889475,-2271,-0.695323425
2023-10-21 23:44:59.185,17333,214931,191796,-3031,-0.928016425,-2299,-0.703896325
2023-10-21 23:44:59.185,17334,214956,191813,-2939,-0.899848325,-2328,-0.7127754
2023-10-21 23:44:59.217,17335,215001,191815,-2499,-0.765131325,-2347,-0.718592725
2023-10-21 23:44:59.217,17336,215034,191841,-2772,-0.8487171,-2364,-0.7237977
2023-10-21 23:44:59.217,17337,215075,191861,-3138,-0.96077715,-2390,-0.73175825
2023-10-21 23:44:59.217,17338,215103,191874,-2754,-0.84320595,-2409,-0.737575575
2023-10-21 23:44:59.217,17339,215143,191886,-2677,-0.819630475,-2421,-0.741249675
2023-10-21 23:44:59.217,17340,215184,191893,-3145,-0.962920375,-2443,-0.747985525
2023-10-21 23:44:59.217,17341,215193,191916,-2762,-0.84565535,-2465,-0.754721375
2023-10-21 23:44:59.248,17342,215238,191923,-2618,-0.80156615,-2475,-0.757783125
2023-10-21 23:44:59.248,17343,215281,191947,-3243,-0.992925525,-2487,-0.761457225
2023-10-21 23:44:59.248,17344,215332,191959,-3151,-0.964757425,-2509,-0.768193075
2023-10-21 23:44:59.248,17345,215364,191975,-2720,-0.832796,-2525,-0.773091875
2023-10-21 23:44:59.248,17346,215385,191987,-3066,-0.93873255,-2541,-0.777990675
2023-10-21 23:44:59.278,17347,215435,191995,-3134,-0.95955245,-2564,-0.7850327
2023-10-21 23:44:59.278,17348,215474,192019,-2702,-0.82728485,-2586,-0.79176855
2023-10-21 23:44:59.278,17349,215506,192035,-2735,-0.837388625,-2607,-0.798198225
2023-10-21 23:44:59.278,17350,215557,192049,-3306,-1.01221455,-2641,-0.808608175
2023-10-21 23:44:59.278,17351,215607,192071,-3057,-0.935976975,-2671,-0.817793425
2023-10-21 23:44:59.278,17352,215629,192068,-2717,-0.831877475,-2686,-0.82238605
2023-10-21 23:44:59.278,17353,215679,192086,-3271,-1.001498425,-2705,-0.828203375
2023-10-21 23:44:59.310,17354,215717,192123,-3182,-0.97424885,-2734,-0.83708245
2023-10-21 23:44:59.310,17355,215751,192116,-2655,-0.812894625,-2754,-0.84320595
2023-10-21 23:44:59.310,17356,215807,192149,-3002,-0.91913735,-2771,-0.848410925
2023-10-21 23:44:59.310,17357,215852,192166,-3348,-1.0250739,-2798,-0.85667765
2023-10-21 23:44:59.310,17358,215893,192164,-2789,-0.853922075,-2818,-0.86280115
2023-10-21 23:44:59.310,17359,215915,192202,-2846,-0.87137405,-2830,-0.86647525
2023-10-21 23:44:59.326,17360,215979,192212,-3337,-1.021705975,-2850,-0.87259875
2023-10-21 23:44:59.326,17361,216001,192226,-2988,-0.9148509,-2867,-0.877803725
2023-10-21 23:44:59.326,17362,216064,192241,-2840,-0.869537,-2875,-0.880253125
2023-10-21 23:44:59.326,17363,216075,192250,-3222,-0.98649585,-2891,-0.885151925
2023-10-21 23:44:59.357,17364,216140,192252,-3266,-0.99996755,-2914,-0.89219395
2023-10-21 23:44:59.357,17365,216157,192286,-2969,-0.909033575,-2924,-0.8952557
2023-10-21 23:44:59.357,17366,216218,192296,-3209,-0.982515575,-2930,-0.89709275
2023-10-21 23:44:59.357,17367,216266,192313,-3510,-1.07467425,-2945,-0.901685375
2023-10-21 23:44:59.357,17368,216301,192330,-2909,-0.890663075,-2955,-0.904747125
2023-10-21 23:44:59.357,17369,216342,192346,-2989,-0.915157075,-2959,-0.905971825
2023-10-21 23:44:59.357,17370,216407,192373,-3440,-1.053242,-2975,-0.910870625
2023-10-21 23:44:59.389,17371,216428,192381,-3181,-0.973942675,-2989,-0.915157075
2023-10-21 23:44:59.389,17372,216487,192401,-2752,-0.8425936,-2992,-0.9160756
2023-10-21 23:44:59.389,17373,216513,192418,-3079,-0.942712825,-2997,-0.917606475
2023-10-21 23:44:59.389,17374,216574,192431,-3211,-0.983127925,-3006,-0.92036205
2023-10-21 23:44:59.389,17375,216645,192465,-2707,-0.828815725,-3003,-0.919443525
2023-10-21 23:44:59.389,17376,216674,192478,-3029,-0.927404075,-3000,-0.918525
2023-10-21 23:44:59.420,17377,216714,192489,-3182,-0.97424885,-3009,-0.921280575
2023-10-21 23:44:59.420,17378,216755,192490,-2809,-0.860045575,-3017,-0.923729975
2023-10-21 23:44:59.420,17379,216800,192519,-2685,-0.822079875,-3021,-0.924954675
2023-10-21 23:44:59.420,17380,216837,192539,-3149,-0.964145075,-3035,-0.929241125
2023-10-21 23:44:59.420,17381,216878,192542,-2769,-0.847798575,-3047,-0.932915225
2023-10-21 23:44:59.467,17382,216922,192568,-2518,-0.77094865,-3047,-0.932915225
2023-10-21 23:44:59.467,17383,216943,192580,-2982,-0.91301385,-3057,-0.935976975
2023-10-21 23:44:59.467,17384,216989,192586,-2831,-0.866781425,-3076,-0.9417943
2023-10-21 23:44:59.467,17385,217014,192615,-2479,-0.759007825,-3088,-0.9454684
2023-10-21 23:44:59.467,17386,217072,192624,-2808,-0.8597394,-3103,-0.950061025
2023-10-21 23:44:59.467,17387,217113,192649,-2994,-0.91668795,-3129,-0.958021575
2023-10-21 23:44:59.497,17388,217132,192654,-2593,-0.793911775,-3145,-0.962920375
2023-10-21 23:44:59.497,17389,217170,192653,-2641,-0.808608175,-3145,-0.962920375
2023-10-21 23:44:59.497,17390,217211,192686,-2994,-0.91668795,-3142,-0.96200185
2023-10-21 23:44:59.497,17391,217256,192700,-2754,-0.84320595,-3138,-0.96077715
2023-10-21 23:44:59.497,17392,217295,192701,-2496,-0.7642128,-3125,-0.956796875
2023-10-21 23:44:59.497,17393,217348,192726,-3044,-0.9319967,-3114,-0.95342895
2023-10-21 23:44:59.528,17394,217367,192747,-3371,-1.032115925,-3103,-0.950061025
2023-10-21 23:44:59.528,17395,217414,192763,-3162,-0.96812535,-3078,-0.94240665
2023-10-21 23:44:59.528,17396,217448,192763,-3798,-1.16285265,-3049,-0.933527575
2023-10-21 23:44:59.528,17397,217459,192780,-4176,-1.2785868,-3027,-0.926791725
2023-10-21 23:44:59.528,17398,217499,192777,-3537,-1.082940975,-2997,-0.917606475
2023-10-21 23:44:59.528,17399,217534,192809,-2806,-0.85912705,-2960,-0.906278
2023-10-21 23:44:59.528,17400,217559,192809,-2642,-0.80891435,-2936,-0.8989298
2023-10-21 23:44:59.561,17401,217595,192827,-2191,-0.670829425,-2915,-0.892500125
2023-10-21 23:44:59.561,17402,217633,192834,-1939,-0.593673325,-2885,-0.883314875
2023-10-21 23:44:59.561,17403,217662,192840,-2478,-0.75870165,-2861,-0.875966675
2023-10-21 23:44:59.561,17404,217693,192861,-2528,-0.7740104,-2843,-0.870455525
2023-10-21 23:44:59.561,17405,217712,192858,-2149,-0.657970075,-2820,-0.8634135
2023-10-21 23:44:59.561,17406,217736,192866,-2446,-0.74890405,-2800,-0.85729
2023-10-21 23:44:59.561,17407,217773,192867,-2792,-0.8548406,-2792,-0.8548406
2023-10-21 23:44:59.591,17408,217805,192900,-2381,-0.729002675,-2780,-0.8511665
2023-10-21 23:44:59.591,17409,217805,192901,-2254,-0.69011845,-2767,-0.847186225
2023-10-21 23:44:59.591,17410,217839,192909,-2729,-0.835551575,-2770,-0.84810475
2023-10-21 23:44:59.591,17411,217871,192914,-2545,-0.779215375,-2788,-0.8536159
2023-10-21 23:44:59.591,17412,217896,192931,-2254,-0.69011845,-2821,-0.863719675
2023-10-21 23:44:59.591,17413,217918,192942,-2816,-0.8621888,-3140,-0.9613895
2023-10-21 23:44:59.622,17414,217949,192947,-2798,-0.85667765,-3539,-1.083553325
2023-10-21 23:44:59.622,17415,217993,192956,-2252,-0.6895061,-3645,-1.116007875
2023-10-21 23:44:59.622,17416,218035,192964,-2608,-0.7985044,-3456,-1.0581408
2023-10-21 23:44:59.622,17417,218056,192974,-2777,-0.850247975,-3174,-0.97179945
2023-10-21 23:44:59.622,17418,218092,192988,-2409,-0.737575575,-2828,-0.8658629
2023-10-21 23:44:59.622,17419,218122,193005,-2396,-0.7335953,-2456,-0.7519658
2023-10-21 23:44:59.622,17420,218161,193009,-2871,-0.879028425,-2257,-0.691036975
2023-10-21 23:44:59.653,17421,218181,193036,-2618,-0.80156615,-2196,-0.6723603
2023-10-21 23:44:59.653,17422,218229,193035,-2265,-0.693486375,-2180,-0.6674615
2023-10-21 23:44:59.653,17423,218255,193046,-2734,-0.83708245,-2329,-0.713081575
2023-10-21 23:44:59.653,17424,218303,193063,-2715,-0.831265125,-2576,-0.7887068
2023-10-21 23:44:59.653,17425,218326,193071,-2247,-0.687975225,-2643,-0.809220525
2023-10-21 23:44:59.653,17426,218354,193092,-2581,-0.790237675,-2557,-0.782889475
2023-10-21 23:44:59.670,17427,218407,193102,-2737,-0.838000975,-2503,-0.766356025
2023-10-21 23:44:59.670,17428,218406,193106,-2333,-0.714306275,-2434,-0.74522995
2023-10-21 23:44:59.670,17429,218440,193117,-2438,-0.74645465,-2391,-0.732064425
2023-10-21 23:44:59.670,17430,218462,193137,-2765,-0.846573875,-2444,-0.7482917
2023-10-21 23:44:59.670,17431,218469,193138,-2562,-0.78442035,-2520,-0.771561
2023-10-21 23:44:59.717,17432,218502,193142,-2332,-0.7140001,-2508,-0.7678869
2023-10-21 23:44:59.717,17433,218511,193131,-2827,-0.865556725,-2535,-0.776153625
2023-10-21 23:44:59.717,17434,218515,193127,-2812,-0.8609641,-2563,-0.784726525
2023-10-21 23:44:59.717,17435,218491,193116,-2225,-0.681239375,-2561,-0.784114175
2023-10-21 23:44:59.717,17436,218452,193089,-2488,-0.7617634,-2547,-0.779827725
2023-10-21 23:44:59.717,17437,218369,193064,-2808,-0.8597394,-2550,-0.78074625
2023-10-21 23:44:59.717,17438,218283,193020,-2390,-0.73175825,-2561,-0.784114175
2023-10-21 23:44:59.748,17439,218157,192956,-2344,-0.7176742,-2572,-0.7874821
2023-10-21 23:44:59.748,17440,218026,192898,-2886,-0.88362105,-2589,-0.792687075
2023-10-21 23:44:59.748,17441,217876,192833,-2551,-0.781052425,-2596,-0.7948303
2023-10-21 23:44:59.748,17442,217703,192753,-2369,-0.725328575,-2582,-0.79054385
2023-10-21 23:44:59.748,17443,217513,192677,-2818,-0.86280115,-2570,-0.78686975
2023-10-21 23:44:59.748,17444,217327,192595,-2834,-0.86769995,-2565,-0.785338875
2023-10-21 23:44:59.780,17445,217112,192511,-2337,-0.715530975,-2557,-0.782889475
2023-10-21 23:44:59.780,17446,216899,192420,-2649,-0.811057575,-2554,-0.78197095
2023-10-21 23:44:59.780,17447,216719,192331,-2947,-0.902297725,-2561,-0.784114175
2023-10-21 23:44:59.780,17448,216517,192261,-2608,-0.7985044,-2561,-0.784114175
2023-10-21 23:44:59.780,17449,216329,192194,-2624,-0.8034032,-2553,-0.781664775
2023-10-21 23:44:59.780,17450,216148,192117,-2912,-0.8915816,-2555,-0.782277125
2023-10-21 23:44:59.780,17451,216002,192072,-2624,-0.8034032,-2561,-0.784114175
2023-10-21 23:44:59.780,17452,215856,192025,-2512,-0.7691116,-2556,-0.7825833
2023-10-21 23:44:59.810,17453,215712,191968,-2830,-0.86647525,-2557,-0.782889475
2023-10-21 23:44:59.810,17454,215613,191902,-2741,-0.839225675,-2566,-0.78564505
2023-10-21 23:44:59.810,17455,215529,191887,-2246,-0.68766905,-2567,-0.785951225
2023-10-21 23:44:59.810,17456,215431,191835,-2406,-0.73665705,-2565,-0.785338875
2023-10-21 23:44:59.810,17457,215371,191814,-2639,-0.807995825,-2569,-0.786563575
2023-10-21 23:44:59.810,17458,215304,191791,-2065,-0.632251375,-2569,-0.786563575
2023-10-21 23:44:59.810,17459,215269,191770,-2059,-0.630414325,-2565,-0.785338875
2023-10-21 23:44:59.842,17460,215219,191768,-2536,-0.7764598,-2574,-0.78809445
2023-10-21 23:44:59.842,17461,215224,191763,-2356,-0.7213483,-2585,-0.791462375
2023-10-21 23:44:59.842,17462,215186,191762,-1970,-0.60316475,-2585,-0.791462375
2023-10-21 23:44:59.842,17463,215176,191754,-2311,-0.707570425,-2590,-0.79299325
2023-10-21 23:44:59.842,17464,215208,191758,-2344,-0.7176742,-2604,-0.7972797
2023-10-21 23:44:59.873,17465,215227,191773,-1922,-0.58846835,-2612,-0.7997291
2023-10-21 23:44:59.873,17466,215230,191777,-2152,-0.6588886,-2624,-0.8034032
2023-10-21 23:44:59.873,17467,215238,191773,-2380,-0.7286965,-2647,-0.810445225
2023-10-21 23:44:59.873,17468,215240,191785,-2050,-0.62765875,-2665,-0.815956375
2023-10-21 23:44:59.873,17469,215256,191774,-2045,-0.626127875,-2676,-0.8193243
2023-10-21 23:44:59.873,17470,215249,191764,-2308,-0.7066519,-2691,-0.823916925
2023-10-21 23:44:59.873,17471,215245,191763,-2131,-0.652458925,-2695,-0.825141625
2023-10-21 23:44:59.919,17472,215224,191757,-1850,-0.56642375,-2680,-0.820549
2023-10-21 23:44:59.919,17473,215208,191750,-2226,-0.68154555,-2664,-0.8156502
2023-10-21 23:44:59.919,17474,215173,191742,-2463,-0.754109025,-2651,-0.811669925
2023-10-21 23:44:59.919,17475,215130,191731,-2031,-0.621841425,-2622,-0.80279085
2023-10-21 23:44:59.919,17476,215111,191713,-2239,-0.685525825,-2532,-0.7752351
2023-10-21 23:44:59.919,17477,215054,191689,-2454,-0.75135345,-2459,-0.752884325
2023-10-21 23:44:59.950,17478,215030,191678,-1916,-0.5866313,-2425,-0.742474375
2023-10-21 23:44:59.950,17479,214969,191659,-1952,-0.5976536,-2365,-0.724103875
2023-10-21 23:44:59.950,17480,214935,191652,-2398,-0.73420765,-2350,-0.71951125
2023-10-21 23:44:59.950,17481,214889,191621,-1962,-0.60071535,-2361,-0.722879175
2023-10-21 23:44:59.950,17482,214858,191602,-1611,-0.493247925,-2324,-0.7115507
2023-10-21 23:44:59.950,17483,214831,191594,-2069,-0.633476075,-2290,-0.70114075
2023-10-21 23:44:59.950,17484,214817,191581,-2045,-0.626127875,-2264,-0.6931802
2023-10-21 23:44:59.950,17485,214774,191568,-1584,-0.4849812,-2233,-0.683688775
2023-10-21 23:44:59.950,17486,214780,191572,-1749,-0.535500075,-2209,-0.676340575
2023-10-21 23:44:59.981,17487,214780,191569,-1919,-0.587549825,-2200,-0.673585
2023-10-21 23:44:59.981,17488,214789,191576,-1668,-0.5106999,-2191,-0.670829425
2023-10-21 23:44:59.981,17489,214836,191591,-1712,-0.5241716,-2176,-0.6662368
2023-10-21 23:44:59.981,17490,214855,191598,-2019,-0.618167325,-2170,-0.66439975
2023-10-21 23:44:59.981,17491,214884,191606,-1730,-0.52968275,-2168,-0.6637874
2023-10-21 23:44:59.981,17492,214941,191637,-1462,-0.44762785,-2160,-0.661338
2023-10-21 23:44:59.981,17493,214968,191647,-1943,-0.594898025,-2159,-0.661031825
2023-10-21 23:45:00.011,17494,215016,191662,-1948,-0.5964289,-2168,-0.6637874
2023-10-21 23:45:00.011,17495,215048,191683,-1426,-0.43660555,-2170,-0.66439975
2023-10-21 23:45:00.011,17496,215088,191701,-1701,-0.520803675,-2171,-0.664705925
2023-10-21 23:45:00.011,17497,215115,191712,-2019,-0.618167325,-2177,-0.666542975
2023-10-21 23:45:00.011,17498,215146,191703,-1518,-0.46477365,-2171,-0.664705925
2023-10-21 23:45:00.043,17499,215158,191700,-1432,-0.4384426,-2147,-0.657357725
2023-10-21 23:45:00.043,17500,215174,191720,-1961,-0.600409175,-2127,-0.651234225
2023-10-21 23:45:00.043,17501,215214,191725,-1637,-0.501208475,-2109,-0.645723075
2023-10-21 23:45:00.043,17502,215221,191733,-1360,-0.416398,-2079,-0.636537825
2023-10-21 23:45:00.043,17503,215242,191740,-1671,-0.511618425,-2015,-0.616942625
2023-10-21 23:45:00.043,17504,215256,191730,-1422,-0.43538085,-1971,-0.603470925
2023-10-21 23:45:00.043,17505,215247,191737,-789,-0.241572075,-1940,-0.5939795
2023-10-21 23:45:00.043,17506,215239,191727,-1033,-0.316278775,-1922,-0.58846835
2023-10-21 23:45:00.074,17507,215254,191722,-1058,-0.32393315,-1889,-0.578364575
2023-10-21 23:45:00.074,17508,215242,191739,-555,-0.169927125,-1854,-0.56764845
2023-10-21 23:45:00.074,17509,215263,191732,-675,-0.206668125,-1822,-0.55785085
2023-10-21 23:45:00.074,17510,215279,191722,-1015,-0.310767625,-1810,-0.55417675
2023-10-21 23:45:00.074,17511,215286,191732,-831,-0.254431425,-1803,-0.552033525
2023-10-21 23:45:00.074,17512,215288,191741,-515,-0.157680125,-1784,-0.5462162
2023-10-21 23:45:00.106,17513,215313,191747,-742,-0.22718185,-1768,-0.5413174
2023-10-21 23:45:00.106,17514,215334,191752,-771,-0.236060925,-1762,-0.53948035
2023-10-21 23:45:00.106,17515,215353,191756,-336,-0.1028748,-1753,-0.536724775
2023-10-21 23:45:00.106,17516,215367,191778,-600,-0.183705,-1743,-0.533663025
2023-10-21 23:45:00.106,17517,215396,191790,-876,-0.2682093,-1739,-0.532438325
2023-10-21 23:45:00.137,17518,215428,191786,-464,-0.1420652,-1730,-0.52968275
2023-10-21 23:45:00.137,17519,215466,191805,-608,-0.1861544,-1713,-0.524477775
2023-10-21 23:45:00.137,17520,215501,191827,-1070,-0.32760725,-1698,-0.51988515
2023-10-21 23:45:00.137,17521,215543,191849,-811,-0.248307925,-1671,-0.511618425
2023-10-21 23:45:00.137,17522,215576,191861,-565,-0.172988875,-1621,-0.496309675
2023-10-21 23:45:00.137,17523,215621,191872,-1042,-0.31903435,-1390,-0.42558325
2023-10-21 23:45:00.169,17524,215684,191896,-1022,-0.31291085,-1210,-0.37047175
2023-10-21 23:45:00.169,17525,215740,191917,-648,-0.1984014,-995,-0.304644125
2023-10-21 23:45:00.169,17526,215781,191949,-974,-0.29821445,-838,-0.25657465
2023-10-21 23:45:00.169,17527,215851,191970,-1119,-0.342609825,-832,-0.2547376
2023-10-21 23:45:00.169,17528,215920,192000,-784,-0.2400412,-837,-0.256268475
2023-10-21 23:45:00.169,17529,215982,192022,-896,-0.2743328,-792,-0.2424906
2023-10-21 23:45:00.200,17530,216028,192041,-1445,-0.442422875,-793,-0.242796775
2023-10-21 23:45:00.200,17531,216084,192070,-1078,-0.33005665,-797,-0.244021475
2023-10-21 23:45:00.200,17532,216134,192081,-798,-0.24432765,-755,-0.231162125
2023-10-21 23:45:00.200,17533,216181,192083,-1302,-0.39863985,-764,-0.2339177
2023-10-21 23:45:00.200,17534,216214,192119,-1556,-0.4764083,-739,-0.226263325
2023-10-21 23:45:00.232,17535,216271,192130,-1158,-0.35455065,-698,-0.21371015
2023-10-21 23:45:00.232,17536,216297,192146,-1205,-0.368940875,-676,-0.2069743
2023-10-21 23:45:00.232,17537,216356,192178,-1390,-0.42558325,-679,-0.207892825
2023-10-21 23:45:00.232,17538,216385,192187,-1150,-0.35210125,-686,-0.21003605
2023-10-21 23:45:00.232,17539,216418,192200,-1285,-0.393434875,-689,-0.210954575
2023-10-21 23:45:00.232,17540,216462,192221,-1634,-0.50028995,-701,-0.214628675
2023-10-21 23:45:00.264,17541,216505,192214,-1364,-0.4176227,-717,-0.219527475
2023-10-21 23:45:00.264,17542,216541,192239,-1060,-0.3245455,-729,-0.223201575
2023-10-21 23:45:00.264,17543,216599,192271,-1584,-0.4849812,-751,-0.229937425
2023-10-21 23:45:00.264,17544,216626,192272,-1752,-0.5364186,-784,-0.2400412
2023-10-21 23:45:00.264,17545,216680,192289,-1230,-0.37659525,-814,-0.24922645
2023-10-21 23:45:00.264,17546,216708,192301,-1536,-0.4702848,-848,-0.2596364
2023-10-21 23:45:00.296,17547,216731,192323,-1864,-0.5707102,-892,-0.2731081
2023-10-21 23:45:00.296,17548,216787,192324,-1424,-0.4359932,-924,-0.2829057
2023-10-21 23:45:00.296,17549,216816,192346,-1367,-0.418541225,-943,-0.288723025
2023-10-21 23:45:00.296,17550,216823,192353,-1850,-0.56642375,-972,-0.2976021
2023-10-21 23:45:00.296,17551,216893,192363,-1617,-0.495084975,-1010,-0.30923675
2023-10-21 23:45:00.296,17552,216919,192391,-1374,-0.42068445,-1046,-0.32025905
2023-10-21 23:45:00.296,17553,216964,192396,-1805,-0.552645875,-1084,-0.3318937
2023-10-21 23:45:00.327,17554,217009,192426,-2007,-0.614493225,-1121,-0.343222175
2023-10-21 23:45:00.327,17555,217044,192420,-1588,-0.4862059,-1151,-0.352407425
2023-10-21 23:45:00.327,17556,217079,192457,-1836,-0.5621373,-1183,-0.362205025
2023-10-21 23:45:00.327,17557,217128,192461,-2120,-0.649091,-1222,-0.37414585
2023-10-21 23:45:00.327,17558,217167,192473,-1708,-0.5229469,-1249,-0.382412575
2023-10-21 23:45:00.327,17559,217210,192488,-1720,-0.526621,-1267,-0.387923725
2023-10-21 23:45:00.327,17560,217262,192527,-2174,-0.66562445,-1299,-0.397721325
2023-10-21 23:45:00.357,17561,217294,192538,-2108,-0.6454169,-1334,-0.40843745
2023-10-21 23:45:00.357,17562,217349,192562,-1832,-0.5609126,-1354,-0.41456095
2023-10-21 23:45:00.357,17563,217408,192579,-2218,-0.67909615,-1373,-0.420378275
2023-10-21 23:45:00.357,17564,217443,192598,-2334,-0.71461245,-1401,-0.428951175
2023-10-21 23:45:00.357,17565,217501,192613,-1889,-0.578364575,-1426,-0.43660555
2023-10-21 23:45:00.357,17566,217562,192632,-2077,-0.635925475,-1450,-0.44395375
2023-10-21 23:45:00.403,17567,217600,192663,-2415,-0.739412625,-1479,-0.452832825
2023-10-21 23:45:00.403,17568,217656,192671,-2122,-0.64970335,-1502,-0.45987485
2023-10-21 23:45:00.403,17569,217693,192692,-1868,-0.5719349,-1520,-0.465386
2023-10-21 23:45:00.403,17570,217724,192689,-2342,-0.71706185,-1549,-0.474265075
2023-10-21 23:45:00.403,17571,217753,192720,-2126,-0.65092805,-1580,-0.4837565
2023-10-21 23:45:00.403,17572,217791,192727,-1862,-0.57009785,-1602,-0.49049235
2023-10-21 23:45:00.403,17573,217846,192749,-2278,-0.69746665,-1630,-0.49906525
2023-10-21 23:45:00.437,17574,217885,192757,-2430,-0.74400525,-1667,-0.510393725
2023-10-21 23:45:00.437,17575,217918,192784,-1895,-0.580201625,-1695,-0.518966625
2023-10-21 23:45:00.437,17576,217952,192790,-2111,-0.646335425,-1722,-0.52723335
2023-10-21 23:45:00.437,17577,217997,192819,-2478,-0.75870165,-1757,-0.537949475
2023-10-21 23:45:00.437,17578,218053,192817,-2139,-0.654908325,-1791,-0.548359425
2023-10-21 23:45:00.437,17579,218076,192842,-2007,-0.614493225,-1822,-0.55785085
2023-10-21 23:45:00.466,17580,218115,192858,-2459,-0.752884325,-1866,-0.57132255
2023-10-21 23:45:00.466,17581,218162,192882,-2387,-0.730839725,-1914,-0.58601895
2023-10-21 23:45:00.466,17582,218184,192888,-1925,-0.589386875,-1951,-0.597347425
2023-10-21 23:45:00.466,17583,218222,192907,-2400,-0.73482,-1986,-0.60806355
2023-10-21 23:45:00.466,17584,218266,192927,-2791,-0.854534425,-2022,-0.61908585
2023-10-21 23:45:00.466,17585,218299,192926,-2676,-0.8193243,-2046,-0.62643405
2023-10-21 23:45:00.466,17586,218315,192950,-3207,-0.981903225,-2065,-0.632251375
2023-10-21 23:45:00.466,17587,218337,192957,-3879,-1.187652825,-2089,-0.639599575
2023-10-21 23:45:00.466,17588,218388,192964,-3665,-1.122131375,-2109,-0.645723075
2023-10-21 23:45:00.500,17589,218399,192968,-3210,-0.98282175,-2119,-0.648784825
2023-10-21 23:45:00.500,17590,218436,192988,-3067,-0.939038725,-2133,-0.653071275
2023-10-21 23:45:00.500,17591,218470,192996,-2131,-0.652458925,-2146,-0.65705155
2023-10-21 23:45:00.500,17592,218493,192996,-1522,-0.46599835,-2145,-0.656745375
2023-10-21 23:45:00.500,17593,218509,193003,-2026,-0.62031055,-2143,-0.656133025
2023-10-21 23:45:00.500,17594,218547,193020,-2257,-0.691036975,-2152,-0.6588886
2023-10-21 23:45:00.500,17595,218555,193013,-2013,-0.616330275,-2156,-0.6601133
2023-10-21 23:45:00.522,17596,218575,193026,-2324,-0.7115507,-2158,-0.66072565
2023-10-21 23:45:00.522,17597,218601,193045,-2574,-0.78809445,-2172,-0.6650121
2023-10-21 23:45:00.522,17598,218614,193023,-2192,-0.6711356,-2186,-0.66929855
2023-10-21 23:45:00.522,17599,218613,193051,-2190,-0.67052325,-2192,-0.6711356
2023-10-21 23:45:00.522,17600,218662,193058,-2609,-0.798810575,-2208,-0.6760344
2023-10-21 23:45:00.545,17601,218689,193063,-2338,-0.71583715,-2236,-0.6846073
2023-10-21 23:45:00.545,17602,218705,193076,-2047,-0.626740225,-2273,-0.695935775
2023-10-21 23:45:00.545,17603,218736,193094,-2565,-0.785338875,-2609,-0.798810575
2023-10-21 23:45:00.545,17604,218769,193102,-2638,-0.80768965,-3080,-0.943019
2023-10-21 23:45:00.545,17605,218806,193109,-2238,-0.68521965,-3389,-1.037627075
2023-10-21 23:45:00.545,17606,218835,193127,-2325,-0.711856875,-3455,-1.057834625
2023-10-21 23:45:00.545,17607,218877,193140,-2719,-0.832489825,-3338,-1.02201215
2023-10-21 23:45:00.545,17608,218907,193159,-2362,-0.72318535,-2963,-0.907196525
2023-10-21 23:45:00.576,17609,218937,193151,-2301,-0.704508675,-2465,-0.754721375
2023-10-21 23:45:00.576,17610,218955,193168,-2741,-0.839225675,-2140,-0.6552145
2023-10-21 23:45:00.576,17611,219001,193195,-2539,-0.777378325,-1981,-0.606532675
2023-10-21 23:45:00.576,17612,219036,193204,-2261,-0.692261675,-1892,-0.5792831
2023-10-21 23:45:00.576,17613,219080,193227,-2668,-0.8168749,-1991,-0.609594425
2023-10-21 23:45:00.576,17614,219106,193232,-2775,-0.849635625,-2242,-0.68644435
2023-10-21 23:45:00.608,17615,219152,193241,-2291,-0.701446925,-2411,-0.738187925
2023-10-21 23:45:00.608,17616,219176,193264,-2497,-0.764518975,-2478,-0.75870165
2023-10-21 23:45:00.608,17617,219222,193291,-2973,-0.910258275,-2498,-0.76482515
2023-10-21 23:45:00.608,17618,219264,193301,-2567,-0.785951225,-2373,-0.726553275
2023-10-21 23:45:00.608,17619,219314,193305,-2398,-0.73420765,-2220,-0.6797085
2023-10-21 23:45:00.639,17620,219336,193327,-2844,-0.8707617,-2230,-0.68277025
2023-10-21 23:45:00.639,17621,219360,193349,-2700,-0.8266725,-2333,-0.714306275
2023-10-21 23:45:00.639,17622,219397,193349,-2503,-0.766356025,-2376,-0.7274718
2023-10-21 23:45:00.639,17623,219432,193363,-2968,-0.9087274,-2370,-0.72563475
2023-10-21 23:45:00.639,17624,219464,193382,-3004,-0.9197497,-2397,-0.733901475
2023-10-21 23:45:00.639,17625,219491,193377,-2544,-0.7789092,-2420,-0.7409435
2023-10-21 23:45:00.670,17626,219493,193373,-2837,-0.868618475,-2419,-0.740637325
2023-10-21 23:45:00.670,17627,219481,193368,-3178,-0.97302415,-2416,-0.7397188
2023-10-21 23:45:00.670,17628,219445,193356,-2906,-0.88974455,-2416,-0.7397188
2023-10-21 23:45:00.670,17629,219352,193310,-2750,-0.84198125,-2426,-0.74278055
2023-10-21 23:45:00.670,17630,219292,193259,-3224,-0.9871082,-2458,-0.75257815
2023-10-21 23:45:00.670,17631,219157,193217,-3196,-0.9785353,-2492,-0.7629881
2023-10-21 23:45:00.702,17632,219027,193161,-2821,-0.863719675,-2505,-0.766968375
2023-10-21 23:45:00.702,17633,218880,193089,-3219,-0.985577325,-2509,-0.768193075
2023-10-21 23:45:00.702,17634,218722,193012,-3335,-1.021093625,-2520,-0.771561
2023-10-21 23:45:00.702,17635,218555,192952,-2976,-0.9111768,-2530,-0.77462275
2023-10-21 23:45:00.702,17636,218386,192862,-3198,-0.97914765,-2543,-0.778603025
2023-10-21 23:45:00.702,17637,218206,192787,-3543,-1.084778025,-2568,-0.7862574
2023-10-21 23:45:00.702,17638,217998,192707,-3192,-0.9773106,-2592,-0.7936056
2023-10-21 23:45:00.702,17639,217818,192636,-3039,-0.930465825,-2607,-0.798198225
2023-10-21 23:45:00.733,17640,217631,192573,-3476,-1.0642643,-2629,-0.804934075
2023-10-21 23:45:00.733,17641,217462,192499,-3270,-1.00119225,-2650,-0.81136375
2023-10-21 23:45:00.733,17642,217291,192419,-2934,-0.89831745,-2663,-0.815344025
2023-10-21 23:45:00.733,17643,217127,192361,-3197,-0.978841475,-2687,-0.822692225
2023-10-21 23:45:00.733,17644,216979,192296,-2983,-0.913320025,-2727,-0.834939225
2023-10-21 23:45:00.733,17645,216844,192254,-2690,-0.82361075,-2760,-0.845043
2023-10-21 23:45:00.733,17646,216717,192209,-2862,-0.87627285,-2788,-0.8536159
2023-10-21 23:45:00.764,17647,216636,192167,-2956,-0.9050533,-2822,-0.86402585
2023-10-21 23:45:00.764,17648,216535,192125,-2493,-0.763294275,-2857,-0.874741975
2023-10-21 23:45:00.764,17649,216452,192109,-2424,-0.7421682,-2886,-0.88362105
2023-10-21 23:45:00.764,17650,216385,192077,-2648,-0.8107514,-2924,-0.8952557
2023-10-21 23:45:00.764,17651,216339,192071,-2458,-0.75257815,-2965,-0.907808875
2023-10-21 23:45:00.795,17652,216308,192039,-2099,-0.642661325,-2999,-0.918218825
2023-10-21 23:45:00.795,17653,216289,192037,-2577,-0.789012975,-3037,-0.929853475
2023-10-21 23:45:00.795,17654,216266,192023,-2614,-0.80034145,-3080,-0.943019
2023-10-21 23:45:00.828,17655,216246,192021,-2245,-0.687362875,-3109,-0.951898075
2023-10-21 23:45:00.828,17656,216244,192014,-2277,-0.697160475,-3131,-0.958633925
2023-10-21 23:45:00.828,17657,216236,192023,-2640,-0.808302,-3162,-0.96812535
2023-10-21 23:45:00.828,17658,216226,192013,-2365,-0.724103875,-3190,-0.97669825
2023-10-21 23:45:00.828,17659,216213,192019,-2196,-0.6723603,-3206,-0.98159705
2023-10-21 23:45:00.828,17660,216194,191991,-2685,-0.822079875,-3218,-0.98527115
2023-10-21 23:45:00.858,17661,216202,192005,-2440,-0.747067,-3215,-0.984352625
2023-10-21 23:45:00.858,17662,216181,191995,-2135,-0.653683625,-3191,-0.977004425
2023-10-21 23:45:00.858,17663,216174,191976,-2524,-0.7727857,-3162,-0.96812535
2023-10-21 23:45:00.858,17664,216128,191968,-2499,-0.765131325,-3061,-0.937201675
2023-10-21 23:45:00.858,17665,216102,191957,-2108,-0.6454169,-2932,-0.8977051
2023-10-21 23:45:00.858,17666,216067,191953,-2329,-0.713081575,-2786,-0.85300355
2023-10-21 23:45:00.889,17667,216059,191944,-2557,-0.782889475,-2711,-0.830040425
2023-10-21 23:45:00.889,17668,216006,191918,-2160,-0.661338,-2629,-0.804934075
2023-10-21 23:45:00.889,17669,215956,191906,-2013,-0.616330275,-2518,-0.77094865
2023-10-21 23:45:00.889,17670,215930,191884,-2454,-0.75135345,-2502,-0.76604985
2023-10-21 23:45:00.889,17671,215894,191861,-2408,-0.7372694,-2537,-0.776765975
2023-10-21 23:45:00.889,17672,215860,191831,-2109,-0.645723075,-2517,-0.770642475
2023-10-21 23:45:00.889,17673,215829,191851,-2450,-0.75012875,-2501,-0.765743675
2023-10-21 23:45:00.920,17674,215822,191840,-2479,-0.759007825,-2516,-0.7703363
2023-10-21 23:45:00.920,17675,215816,191830,-2062,-0.63133285,-2484,-0.7605387
2023-10-21 23:45:00.920,17676,215801,191840,-2060,-0.6307205,-2453,-0.751047275
2023-10-21 23:45:00.920,17677,215819,191832,-2477,-0.758395475,-2436,-0.7458423
2023-10-21 23:45:00.920,17678,215825,191840,-2321,-0.710632175,-2422,-0.74155585
2023-10-21 23:45:00.920,17679,215869,191869,-2126,-0.65092805,-2410,-0.73788175
2023-10-21 23:45:00.920,17680,215897,191873,-2613,-0.800035275,-2412,-0.7384941
2023-10-21 23:45:00.966,17681,215947,191883,-2390,-0.73175825,-2417,-0.740024975
2023-10-21 23:45:00.966,17682,215988,191902,-2079,-0.636537825,-2410,-0.73788175
2023-10-21 23:45:00.966,17683,216040,191916,-2366,-0.72441005,-2403,-0.735738525
2023-10-21 23:45:00.966,17684,216075,191946,-2499,-0.765131325,-2400,-0.73482
2023-10-21 23:45:00.966,17685,216098,191956,-2025,-0.620004375,-2387,-0.730839725
2023-10-21 23:45:00.966,17686,216137,191958,-2058,-0.63010815,-2367,-0.724716225
2023-10-21 23:45:00.966,17687,216158,191978,-2613,-0.800035275,-2356,-0.7213483
2023-10-21 23:45:00.966,17688,216208,191991,-2340,-0.7164495,-2347,-0.718592725
2023-10-21 23:45:00.966,17689,216231,191997,-2161,-0.661644175,-2334,-0.71461245
2023-10-21 23:45:00.997,17690,216259,192013,-2505,-0.766968375,-2328,-0.7127754
2023-10-21 23:45:00.997,17691,216289,192029,-2498,-0.76482515,-2323,-0.711244525
2023-10-21 23:45:00.997,17692,216297,192025,-2224,-0.6809332,-2309,-0.706958075
2023-10-21 23:45:00.997,17693,216307,192033,-2546,-0.77952155,-2298,-0.70359015
2023-10-21 23:45:00.997,17694,216317,192035,-2594,-0.79421795,-2295,-0.702671625
2023-10-21 23:45:00.997,17695,216305,192032,-2266,-0.69379255,-2290,-0.70114075
2023-10-21 23:45:00.997,17696,216322,192038,-2378,-0.72808415,-2287,-0.700222225
2023-10-21 23:45:01.029,17697,216305,192032,-2746,-0.84075655,-2295,-0.702671625
2023-10-21 23:45:01.029,17698,216322,192027,-2290,-0.70114075,-2303,-0.705121025
2023-10-21 23:45:01.029,17699,216313,192036,-2211,-0.676952925,-2304,-0.7054272
2023-10-21 23:45:01.029,17700,216311,192041,-2624,-0.8034032,-2310,-0.70726425
2023-10-21 23:45:01.029,17701,216341,192013,-2511,-0.768805425,-2317,-0.709407475
2023-10-21 23:45:01.029,17702,216313,192033,-2233,-0.683688775,-2311,-0.707570425
2023-10-21 23:45:01.060,17703,216317,192036,-2631,-0.805546425,-2301,-0.704508675
2023-10-21 23:45:01.060,17704,216344,192033,-2594,-0.79421795,-2302,-0.70481485
2023-10-21 23:45:01.060,17705,216358,192050,-2161,-0.661644175,-2304,-0.7054272
2023-10-21 23:45:01.060,17706,216387,192055,-2390,-0.73175825,-2305,-0.705733375
2023-10-21 23:45:01.060,17707,216402,192063,-2741,-0.839225675,-2315,-0.708795125
2023-10-21 23:45:01.060,17708,216416,192080,-2492,-0.7629881,-2326,-0.71216305
2023-10-21 23:45:01.060,17709,216444,192093,-2336,-0.7152248,-2331,-0.713693925
2023-10-21 23:45:01.091,17710,216479,192105,-2776,-0.8499418,-2340,-0.7164495
2023-10-21 23:45:01.091,17711,216534,192141,-2668,-0.8168749,-2350,-0.71951125
2023-10-21 23:45:01.091,17712,216573,192143,-2331,-0.713693925,-2353,-0.720429775
2023-10-21 23:45:01.091,17713,216624,192164,-2693,-0.824529275,-2367,-0.724716225
2023-10-21 23:45:01.091,17714,216658,192190,-2762,-0.84565535,-2397,-0.733901475
2023-10-21 23:45:01.091,17715,216698,192212,-2553,-0.781664775,-2417,-0.740024975
2023-10-21 23:45:01.122,17716,216768,192219,-2676,-0.8193243,-2425,-0.742474375
2023-10-21 23:45:01.122,17717,216797,192240,-2729,-0.835551575,-2436,-0.7458423
2023-10-21 23:45:01.122,17718,216832,192268,-2550,-0.78074625,-2442,-0.74767935
2023-10-21 23:45:01.122,17719,216872,192270,-2489,-0.762069575,-2441,-0.747373175
2023-10-21 23:45:01.122,17720,216940,192300,-2854,-0.87382345,-2445,-0.748597875
2023-10-21 23:45:01.153,17721,216960,192313,-2827,-0.865556725,-2452,-0.7507411
2023-10-21 23:45:01.153,17722,217017,192327,-2492,-0.7629881,-2449,-0.749822575
2023-10-21 23:45:01.153,17723,217033,192344,-2600,-0.796055,-2448,-0.7495164
2023-10-21 23:45:01.153,17724,217076,192348,-2608,-0.7985044,-2455,-0.751659625
2023-10-21 23:45:01.153,17725,217128,192367,-2401,-0.735126175,-2456,-0.7519658
2023-10-21 23:45:01.153,17726,217140,192383,-2554,-0.78197095,-2456,-0.7519658
2023-10-21 23:45:01.153,17727,217176,192388,-2904,-0.8891322,-2469,-0.755946075
2023-10-21 23:45:01.153,17728,217219,192406,-2577,-0.789012975,-2485,-0.760844875
2023-10-21 23:45:01.185,17729,217258,192421,-2489,-0.762069575,-2496,-0.7642128
2023-10-21 23:45:01.185,17730,217273,192436,-2893,-0.885764275,-2514,-0.76972395
2023-10-21 23:45:01.185,17731,217295,192445,-2854,-0.87382345,-2532,-0.7752351
2023-10-21 23:45:01.185,17732,217340,192472,-2478,-0.75870165,-2545,-0.779215375
2023-10-21 23:45:01.185,17733,217378,192470,-2796,-0.8560653,-2563,-0.784726525
2023-10-21 23:45:01.185,17734,217404,192499,-2895,-0.886376625,-2584,-0.7911562
2023-10-21 23:45:01.216,17735,217431,192496,-2545,-0.779215375,-2596,-0.7948303
2023-10-21 23:45:01.216,17736,217452,192513,-2686,-0.82238605,-2607,-0.798198225
2023-10-21 23:45:01.216,17737,217485,192522,-2907,-0.890050725,-2627,-0.804321725
2023-10-21 23:45:01.216,17738,217521,192538,-2510,-0.76849925,-2644,-0.8095267
2023-10-21 23:45:01.216,17739,217557,192542,-2408,-0.7372694,-2650,-0.81136375
2023-10-21 23:45:01.216,17740,217570,192561,-2876,-0.8805593,-2652,-0.8119761
2023-10-21 23:45:01.216,17741,217630,192578,-2723,-0.833714525,-2651,-0.811669925
2023-10-21 23:45:01.216,17742,217628,192592,-2352,-0.7201236,-2643,-0.809220525
2023-10-21 23:45:01.246,17743,217673,192591,-2599,-0.795748825,-2637,-0.807383475
2023-10-21 23:45:01.246,17744,217684,192601,-2930,-0.89709275,-2638,-0.80768965
2023-10-21 23:45:01.246,17745,217728,192609,-2391,-0.732064425,-2635,-0.806771125
2023-10-21 23:45:01.246,17746,217748,192626,-2517,-0.770642475,-2630,-0.80524025
2023-10-21 23:45:01.246,17747,217797,192646,-2822,-0.86402585,-2635,-0.806771125
2023-10-21 23:45:01.246,17748,217828,192641,-2542,-0.77829685,-2643,-0.809220525
2023-10-21 23:45:01.246,17749,217866,192668,-2394,-0.73298295,-2645,-0.809832875
2023-10-21 23:45:01.279,17750,217912,192685,-2761,-0.845349175,-2653,-0.812282275
2023-10-21 23:45:01.279,17751,217947,192701,-2707,-0.828815725,-2666,-0.81626255
2023-10-21 23:45:01.279,17752,218016,192723,-2439,-0.746760825,-2676,-0.8193243
2023-10-21 23:45:01.279,17753,218045,192738,-2674,-0.81871195,-2687,-0.822692225
2023-10-21 23:45:01.279,17754,218106,192765,-3010,-0.92158675,-2701,-0.826978675
2023-10-21 23:45:01.328,17755,218137,192786,-2813,-0.861270275,-2706,-0.82850955
2023-10-21 23:45:01.328,17756,218177,192793,-3252,-0.9956811,-2707,-0.828815725
2023-10-21 23:45:01.328,17757,218218,192803,-4027,-1.232966725,-2713,-0.830652775
2023-10-21 23:45:01.328,17758,218225,192808,-3859,-1.181529325,-2712,-0.8303466
2023-10-21 23:45:01.328,17759,218252,192818,-3500,-1.0716125,-2694,-0.82483545
2023-10-21 23:45:01.328,17760,218269,192829,-3467,-1.061508725,-2678,-0.81993665
2023-10-21 23:45:01.328,17761,218280,192838,-2884,-0.8830087,-2669,-0.817181075
2023-10-21 23:45:01.343,17762,218299,192836,-2025,-0.620004375,-2658,-0.81381315
2023-10-21 23:45:01.343,17763,218302,192834,-2228,-0.6821579,-2648,-0.8107514
2023-10-21 23:45:01.343,17764,218336,192837,-2551,-0.781052425,-2644,-0.8095267
2023-10-21 23:45:01.343,17765,218323,192839,-2202,-0.67419735,-2632,-0.8058526
2023-10-21 23:45:01.343,17766,218354,192847,-2351,-0.719817425,-2620,-0.8021785
2023-10-21 23:45:01.343,17767,218367,192850,-2903,-0.888826025,-2617,-0.801259975
2023-10-21 23:45:01.360,17768,218383,192862,-2569,-0.786563575,-2615,-0.800647625
2023-10-21 23:45:01.360,17769,218399,192863,-2353,-0.720429775,-2609,-0.798810575
2023-10-21 23:45:01.360,17770,218467,192888,-2804,-0.8585147,-2614,-0.80034145
2023-10-21 23:45:01.360,17771,218478,192905,-2757,-0.844124475,-2629,-0.804934075
2023-10-21 23:45:01.360,17772,218528,192925,-2388,-0.7311459,-2645,-0.809832875
2023-10-21 23:45:01.391,17773,218582,192935,-2603,-0.796973525,-2681,-0.820855175
2023-10-21 23:45:01.391,17774,218622,192963,-2746,-0.84075655,-3144,-0.9626142
2023-10-21 23:45:01.391,17775,218665,192986,-2386,-0.73053355,-3494,-1.06977545
2023-10-21 23:45:01.391,17776,218727,193010,-2606,-0.79789205,-3604,-1.1034547
2023-10-21 23:45:01.391,17777,218748,193020,-2947,-0.902297725,-3587,-1.098249725
2023-10-21 23:45:01.391,17778,218809,193025,-2534,-0.77584745,-3375,-1.033340625
2023-10-21 23:45:01.425,17779,218823,193036,-2415,-0.739412625,-2970,-0.90933975
2023-10-21 23:45:01.425,17780,218846,193043,-2865,-0.877191375,-2627,-0.804321725
2023-10-21 23:45:01.425,17781,218877,193059,-2784,-0.8523912,-2415,-0.739412625
2023-10-21 23:45:01.425,17782,218895,193069,-2424,-0.7421682,-2228,-0.6821579
2023-10-21 23:45:01.425,17783,218910,193063,-2713,-0.830652775,-2203,-0.674503525
2023-10-21 23:45:01.425,17784,218939,193078,-3039,-0.930465825,-2415,-0.739412625
2023-10-21 23:45:01.453,17785,218952,193086,-2672,-0.8180996,-2606,-0.79789205
2023-10-21 23:45:01.453,17786,218978,193097,-2652,-0.8119761,-2680,-0.820549
2023-10-21 23:45:01.453,17787,219001,193099,-3032,-0.9283226,-2738,-0.83830715
2023-10-21 23:45:01.453,17788,219015,193110,-2662,-0.81503785,-2701,-0.826978675
2023-10-21 23:45:01.453,17789,219044,193108,-2444,-0.7482917,-2557,-0.782889475
2023-10-21 23:45:01.487,17790,219078,193136,-3012,-0.9221991,-2499,-0.765131325
2023-10-21 23:45:01.487,17791,219118,193164,-2853,-0.873517275,-2523,-0.772479525
2023-10-21 23:45:01.487,17792,219137,193162,-2497,-0.764518975,-2547,-0.779827725
2023-10-21 23:45:01.487,17793,219198,193192,-2851,-0.872904925,-2575,-0.788400625
2023-10-21 23:45:01.487,17794,219242,193213,-3172,-0.9711871,-2611,-0.799422925
2023-10-21 23:45:01.487,17795,219264,193215,-2772,-0.8487171,-2637,-0.807383475
2023-10-21 23:45:01.527,17796,219306,193232,-2780,-0.8511665,-2635,-0.806771125
2023-10-21 23:45:01.527,17797,219315,193241,-3278,-1.00364165,-2630,-0.80524025
2023-10-21 23:45:01.527,17798,219325,193231,-2997,-0.917606475,-2626,-0.80401555
2023-10-21 23:45:01.527,17799,219273,193214,-2663,-0.815344025,-2622,-0.80279085
2023-10-21 23:45:01.527,17800,219213,193178,-3372,-1.0324221,-2633,-0.806158775
2023-10-21 23:45:01.527,17801,219144,193143,-3284,-1.0054787,-2658,-0.81381315
2023-10-21 23:45:01.558,17802,219026,193082,-2881,-0.882090175,-2677,-0.819630475
2023-10-21 23:45:01.558,17803,218884,193013,-3102,-0.94975485,-2691,-0.823916925
2023-10-21 23:45:01.558,17804,218710,192959,-3443,-1.054160525,-2705,-0.828203375
2023-10-21 23:45:01.558,17805,218555,192876,-3136,-0.9601648,-2711,-0.830040425
2023-10-21 23:45:01.589,17806,218346,192764,-3195,-0.978229125,-2717,-0.831877475
2023-10-21 23:45:01.589,17807,218151,192692,-3575,-1.094575625,-2736,-0.8376948
2023-10-21 23:45:01.589,17808,217954,192612,-3340,-1.0226245,-2752,-0.8425936
2023-10-21 23:45:01.589,17809,217746,192527,-2928,-0.8964804,-2753,-0.842899775
2023-10-21 23:45:01.589,17810,217566,192454,-3413,-1.044975275,-2759,-0.844736825
2023-10-21 23:45:01.589,17811,217396,192370,-3524,-1.0789607,-2774,-0.84932945
2023-10-21 23:45:01.589,17812,217213,192307,-3147,-0.963532725,-2785,-0.852697375
2023-10-21 23:45:01.610,17813,217025,192234,-3363,-1.029666525,-2798,-0.85667765
2023-10-21 23:45:01.611,17814,216878,192175,-3329,-1.019256575,-2822,-0.86402585
2023-10-21 23:45:01.611,17815,216757,192128,-2870,-0.87872225,-2842,-0.87014935
2023-10-21 23:45:01.611,17816,216639,192087,-2688,-0.8229984,-2858,-0.87504815
2023-10-21 23:45:01.611,17817,216523,192042,-3035,-0.929241125,-2886,-0.88362105
2023-10-21 23:45:01.611,17818,216453,192026,-2653,-0.812282275,-2920,-0.894031
2023-10-21 23:45:01.646,17819,216403,191996,-2352,-0.7201236,-2948,-0.9026039
2023-10-21 23:45:01.646,17820,216344,191975,-2730,-0.83585775,-2984,-0.9136262
2023-10-21 23:45:01.646,17821,216316,191970,-2682,-0.82116135,-3026,-0.92648555
2023-10-21 23:45:01.646,17822,216288,191964,-2225,-0.681239375,-3059,-0.936589325
2023-10-21 23:45:01.646,17823,216271,191964,-2556,-0.7825833,-3091,-0.946386925
2023-10-21 23:45:01.646,17824,216249,191965,-2818,-0.86280115,-3130,-0.95832775
2023-10-21 23:45:01.646,17825,216252,191975,-2479,-0.759007825,-3160,-0.967513
2023-10-21 23:45:01.672,17826,216241,191962,-2447,-0.749210225,-3181,-0.973942675
2023-10-21 23:45:01.672,17827,216255,191973,-2761,-0.845349175,-3210,-0.98282175
2023-10-21 23:45:01.672,17828,216261,191982,-2631,-0.805546425,-3239,-0.991700825
2023-10-21 23:45:01.672,17829,216272,191985,-2450,-0.75012875,-3257,-0.997211975
2023-10-21 23:45:01.672,17830,216260,191991,-2799,-0.856983825,-3276,-1.0030293
2023-10-21 23:45:01.672,17831,216264,191976,-2762,-0.84565535,-3293,-1.008234275
2023-10-21 23:45:01.672,17832,216257,191978,-2393,-0.732676775,-3288,-1.0067034
2023-10-21 23:45:01.706,17833,216251,191967,-2679,-0.820242825,-3266,-0.99996755
2023-10-21 23:45:01.706,17834,216232,191960,-2836,-0.8683123,-3239,-0.991700825
2023-10-21 23:45:01.706,17835,216213,191937,-2520,-0.771561,-3077,-0.942100475
2023-10-21 23:45:01.706,17836,216188,191937,-2483,-0.760232525,-2832,-0.8670876
2023-10-21 23:45:01.706,17837,216156,191922,-2805,-0.858820875,-2710,-0.82973425
2023-10-21 23:45:01.706,17838,216135,191907,-2580,-0.7899315,-2661,-0.814731675
2023-10-21 23:45:01.740,17839,216094,191885,-2408,-0.7372694,-2584,-0.7911562
2023-10-21 23:45:01.740,17840,216077,191886,-2593,-0.793911775,-2588,-0.7923809
2023-10-21 23:45:01.740,17841,216033,191864,-2696,-0.8254478,-2657,-0.813506975
2023-10-21 23:45:01.740,17842,216013,191841,-2242,-0.68644435,-2651,-0.811669925
2023-10-21 23:45:01.740,17843,215973,191829,-2443,-0.747985525,-2632,-0.8058526
2023-10-21 23:45:01.740,17844,215933,191817,-2666,-0.81626255,-2624,-0.8034032
2023-10-21 23:45:01.740,17845,215916,191810,-2097,-0.642048975,-2594,-0.79421795
2023-10-21 23:45:01.777,17846,215926,191798,-2094,-0.64113045,-2574,-0.78809445
2023-10-21 23:45:01.777,17847,215912,191800,-2465,-0.754721375,-2576,-0.7887068
2023-10-21 23:45:01.777,17848,215895,191782,-2322,-0.71093835,-2587,-0.792074725
2023-10-21 23:45:01.777,17849,215912,191802,-2120,-0.649091,-2594,-0.79421795
2023-10-21 23:45:01.777,17850,215938,191819,-2399,-0.734513825,-2606,-0.79789205
2023-10-21 23:45:01.777,17851,215983,191841,-2374,-0.72685945,-2622,-0.80279085
2023-10-21 23:45:01.809,17852,216005,191857,-2165,-0.662868875,-2626,-0.80401555
2023-10-21 23:45:01.809,17853,216052,191878,-2249,-0.688587575,-2627,-0.804321725
2023-10-21 23:45:01.809,17854,216097,191885,-2454,-0.75135345,-2635,-0.806771125
2023-10-21 23:45:01.809,17855,216118,191909,-2176,-0.6662368,-2639,-0.807995825
2023-10-21 23:45:01.809,17856,216162,191907,-2214,-0.67787145,-2636,-0.8070773
2023-10-21 23:45:01.840,17857,216184,191925,-2622,-0.80279085,-2632,-0.8058526
2023-10-21 23:45:01.840,17858,216223,191931,-2440,-0.747067,-2624,-0.8034032
2023-10-21 23:45:01.840,17859,216242,191955,-2015,-0.616942625,-2606,-0.79789205
2023-10-21 23:45:01.840,17860,216273,191961,-2508,-0.7678869,-2591,-0.793299425
2023-10-21 23:45:01.840,17861,216268,191952,-2511,-0.768805425,-2577,-0.789012975
2023-10-21 23:45:01.840,17862,216296,191952,-2140,-0.6552145,-2550,-0.78074625
2023-10-21 23:45:01.840,17863,216296,191965,-2291,-0.701446925,-2516,-0.7703363
2023-10-21 23:45:01.871,17864,216298,191966,-2517,-0.770642475,-2488,-0.7617634
2023-10-21 23:45:01.871,17865,216282,191944,-2151,-0.658582425,-2457,-0.752271975
2023-10-21 23:45:01.871,17866,216298,191954,-2132,-0.6527651,-2423,-0.741862025
2023-10-21 23:45:01.871,17867,216299,191947,-2508,-0.7678869,-2395,-0.733289125
2023-10-21 23:45:01.871,17868,216282,191947,-2347,-0.718592725,-2371,-0.725940925
2023-10-21 23:45:01.871,17869,216268,191943,-2085,-0.638374875,-2345,-0.717980375
2023-10-21 23:45:01.903,17870,216273,191943,-2406,-0.73665705,-2327,-0.712469225
2023-10-21 23:45:01.903,17871,216272,191940,-2460,-0.7531905,-2316,-0.7091013
2023-10-21 23:45:01.903,17872,216260,191928,-2016,-0.6172488,-2300,-0.7042025
2023-10-21 23:45:01.903,17873,216275,191934,-2258,-0.69134315,-2289,-0.700834575
2023-10-21 23:45:01.903,17874,216288,191948,-2593,-0.793911775,-2296,-0.7029778
2023-10-21 23:45:01.903,17875,216298,191951,-2073,-0.634700775,-2304,-0.7054272
2023-10-21 23:45:01.903,17876,216295,191951,-2013,-0.616330275,-2307,-0.706345725
2023-10-21 23:45:01.903,17877,216307,191945,-2375,-0.727165625,-2319,-0.710019825
2023-10-21 23:45:01.933,17878,216324,191961,-2190,-0.67052325,-2333,-0.714306275
2023-10-21 23:45:01.933,17879,216350,191969,-1912,-0.5854066,-2338,-0.71583715
2023-10-21 23:45:01.933,17880,216381,191976,-2336,-0.7152248,-2339,-0.716143325
2023-10-21 23:45:01.933,17881,216409,191993,-2358,-0.72196065,-2341,-0.716755675
2023-10-21 23:45:01.933,17882,216441,192007,-1957,-0.599184475,-2337,-0.715530975
2023-10-21 23:45:01.933,17883,216477,192017,-2063,-0.631639025,-2335,-0.714918625
2023-10-21 23:45:01.933,17884,216522,192047,-2447,-0.749210225,-2340,-0.7164495
2023-10-21 23:45:01.964,17885,216551,192072,-2105,-0.644498375,-2339,-0.716143325
2023-10-21 23:45:01.964,17886,216601,192071,-1986,-0.60806355,-2329,-0.713081575
2023-10-21 23:45:01.964,17887,216672,192109,-2231,-0.683076425,-2325,-0.711856875
2023-10-21 23:45:01.964,17888,216696,192129,-2180,-0.6674615,-2320,-0.710326
2023-10-21 23:45:01.964,17889,216748,192131,-2039,-0.624290825,-2307,-0.706345725
2023-10-21 23:45:01.996,17890,216796,192162,-2274,-0.69624195,-2299,-0.703896325
2023-10-21 23:45:01.996,17891,216848,192180,-2233,-0.683688775,-2303,-0.705121025
2023-10-21 23:45:01.996,17892,216878,192199,-1980,-0.6062265,-2299,-0.703896325
2023-10-21 23:45:01.996,17893,216923,192199,-2123,-0.650009525,-2289,-0.700834575
2023-10-21 23:45:01.996,17894,216961,192237,-2391,-0.732064425,-2283,-0.698997525
2023-10-21 23:45:01.996,17895,216990,192241,-2155,-0.659807125,-2272,-0.6956296
2023-10-21 23:45:01.996,17896,217033,192241,-2148,-0.6576639,-2254,-0.69011845
2023-10-21 23:45:02.027,17897,217054,192263,-2457,-0.752271975,-2245,-0.687362875
2023-10-21 23:45:02.027,17898,217074,192265,-2192,-0.6711356,-2238,-0.68521965
2023-10-21 23:45:02.027,17899,217109,192267,-2054,-0.62888345,-2223,-0.680627025
2023-10-21 23:45:02.027,17900,217158,192308,-2305,-0.705733375,-2210,-0.67664675
2023-10-21 23:45:02.027,17901,217174,192319,-2278,-0.69746665,-2204,-0.6748097
2023-10-21 23:45:02.027,17902,217192,192322,-1918,-0.58724365,-2193,-0.671441775
2023-10-21 23:45:02.058,17903,217222,192324,-2086,-0.63868105,-2180,-0.6674615
2023-10-21 23:45:02.058,17904,217227,192320,-2461,-0.753496675,-2176,-0.6662368
2023-10-21 23:45:02.058,17905,217269,192329,-2084,-0.6380687,-2171,-0.664705925
2023-10-21 23:45:02.058,17906,217284,192336,-2021,-0.618779675,-2165,-0.662868875
2023-10-21 23:45:02.058,17907,217290,192345,-2602,-0.79666735,-2167,-0.663481225
2023-10-21 23:45:02.088,17908,217307,192350,-2339,-0.716143325,-2169,-0.664093575
2023-10-21 23:45:02.088,17909,217314,192357,-1921,-0.588162175,-2162,-0.66195035
2023-10-21 23:45:02.088,17910,217319,192362,-2435,-0.745536125,-2161,-0.661644175
2023-10-21 23:45:02.088,17911,217348,192363,-2552,-0.7813586,-2167,-0.663481225
2023-10-21 23:45:02.088,17912,217339,192368,-2026,-0.62031055,-2167,-0.663481225
2023-10-21 23:45:02.088,17913,217364,192378,-2097,-0.642048975,-2166,-0.66317505
2023-10-21 23:45:02.088,17914,217383,192382,-2529,-0.774316575,-2177,-0.666542975
2023-10-21 23:45:02.119,17915,217401,192391,-2179,-0.667155325,-2189,-0.670217075
2023-10-21 23:45:02.119,17916,217419,192381,-2129,-0.651846575,-2196,-0.6723603
2023-10-21 23:45:02.119,17917,217446,192395,-2403,-0.735738525,-2205,-0.675115875
2023-10-21 23:45:02.119,17918,217458,192402,-2280,-0.698079,-2212,-0.6772591
2023-10-21 23:45:02.119,17919,217479,192416,-1919,-0.587549825,-2207,-0.675728225
2023-10-21 23:45:02.119,17920,217488,192417,-2339,-0.716143325,-2204,-0.6748097
2023-10-21 23:45:02.150,17921,217515,192428,-2449,-0.749822575,-2207,-0.675728225
2023-10-21 23:45:02.150,17922,217550,192435,-2086,-0.63868105,-2205,-0.675115875
2023-10-21 23:45:02.150,17923,217555,192451,-2290,-0.70114075,-2201,-0.673891175
2023-10-21 23:45:02.150,17924,217574,192452,-2641,-0.808608175,-2207,-0.675728225
2023-10-21 23:45:02.150,17925,217589,192446,-2413,-0.738800275,-2213,-0.677565275
2023-10-21 23:45:02.180,17926,217622,192457,-2178,-0.66684915,-2211,-0.676952925
2023-10-21 23:45:02.180,17927,217665,192453,-2585,-0.791462375,-2216,-0.6784838
2023-10-21 23:45:02.180,17928,217675,192476,-2515,-0.770030125,-2227,-0.681851725
2023-10-21 23:45:02.180,17929,217696,192483,-2290,-0.70114075,-2232,-0.6833826
2023-10-21 23:45:02.180,17930,217714,192486,-2566,-0.78564505,-2239,-0.685525825
2023-10-21 23:45:02.180,17931,217756,192508,-2862,-0.87627285,-2254,-0.69011845
2023-10-21 23:45:02.211,17932,217787,192531,-2869,-0.878416075,-2262,-0.69256785
2023-10-21 23:45:02.211,17933,217800,192528,-3304,-1.0116022,-2268,-0.6944049
2023-10-21 23:45:02.211,17934,217858,192538,-3911,-1.197450425,-2278,-0.69746665
2023-10-21 23:45:02.211,17935,217869,192564,-3728,-1.1414204,-2276,-0.6968543
2023-10-21 23:45:02.211,17936,217905,192584,-3405,-1.042525875,-2264,-0.6931802
2023-10-21 23:45:02.211,17937,217932,192576,-3256,-0.9969058,-2261,-0.692261675
2023-10-21 23:45:02.242,17938,217971,192602,-2448,-0.7495164,-2260,-0.6919555
2023-10-21 23:45:02.242,17939,218005,192602,-2014,-0.61663645,-2251,-0.689199925
2023-10-21 23:45:02.242,17940,218027,192630,-2410,-0.73788175,-2249,-0.688587575
2023-10-21 23:45:02.242,17941,218071,192631,-2574,-0.78809445,-2263,-0.692874025
2023-10-21 23:45:02.272,17942,218081,192633,-2269,-0.694711075,-2276,-0.6968543
2023-10-21 23:45:02.272,17943,218091,192651,-2561,-0.784114175,-2287,-0.700222225
2023-10-21 23:45:02.272,17944,218140,192650,-2757,-0.844124475,-2305,-0.705733375
2023-10-21 23:45:02.272,17945,218179,192673,-2434,-0.74522995,-2324,-0.7115507
2023-10-21 23:45:02.272,17946,218201,192686,-2313,-0.708182775,-2341,-0.716755675
2023-10-21 23:45:02.272,17947,218231,192685,-2860,-0.8756605,-2366,-0.72441005
2023-10-21 23:45:02.272,17948,218251,192701,-2705,-0.828203375,-2401,-0.735126175
2023-10-21 23:45:02.303,17949,218280,192707,-2473,-0.757170775,-2444,-0.7482917
2023-10-21 23:45:02.303,17950,218323,192720,-2805,-0.858820875,-2730,-0.83585775
2023-10-21 23:45:02.303,17951,218353,192752,-2836,-0.8683123,-3178,-0.97302415
2023-10-21 23:45:02.303,17952,218372,192747,-2425,-0.742474375,-3475,-1.063958125
2023-10-21 23:45:02.303,17953,218416,192773,-2516,-0.7703363,-3553,-1.087839775
2023-10-21 23:45:02.303,17954,218451,192794,-2828,-0.8658629,-3462,-1.05997785
2023-10-21 23:45:02.335,17955,218475,192792,-2697,-0.825753975,-3155,-0.965982125
2023-10-21 23:45:02.335,17956,218525,192815,-2559,-0.783501825,-2766,-0.84688005
2023-10-21 23:45:02.335,17957,218545,192819,-2934,-0.89831745,-2522,-0.77217335
2023-10-21 23:45:02.335,17958,218576,192832,-2819,-0.863107325,-2386,-0.73053355
2023-10-21 23:45:02.335,17959,218601,192850,-2412,-0.7384941,-2274,-0.69624195
2023-10-21 23:45:02.335,17960,218640,192856,-2752,-0.8425936,-2317,-0.709407475
2023-10-21 23:45:02.335,17961,218679,192881,-2822,-0.86402585,-2504,-0.7666622
2023-10-21 23:45:02.365,17962,218693,192886,-2472,-0.7568646,-2620,-0.8021785
2023-10-21 23:45:02.365,17963,218709,192881,-2803,-0.858208525,-2649,-0.811057575
2023-10-21 23:45:02.365,17964,218748,192904,-3137,-0.960470975,-2682,-0.82116135
2023-10-21 23:45:02.365,17965,218746,192910,-2781,-0.851472675,-2623,-0.803097025
2023-10-21 23:45:02.365,17966,218798,192921,-2717,-0.831877475,-2519,-0.771254825
2023-10-21 23:45:02.365,17967,218818,192930,-2949,-0.902910075,-2507,-0.767580725
2023-10-21 23:45:02.365,17968,218846,192952,-2815,-0.861882625,-2559,-0.783501825
2023-10-21 23:45:02.396,17969,218864,192942,-2542,-0.77829685,-2585,-0.791462375
2023-10-21 23:45:02.396,17970,218879,192961,-2925,-0.895561875,-2597,-0.795136475
2023-10-21 23:45:02.396,17971,218907,192969,-3063,-0.937814025,-2638,-0.80768965
2023-10-21 23:45:02.396,17972,218929,192953,-2676,-0.8193243,-2655,-0.812894625
2023-10-21 23:45:02.396,17973,218889,192945,-2657,-0.813506975,-2654,-0.81258845
2023-10-21 23:45:02.396,17974,218869,192932,-3033,-0.928628775,-2657,-0.813506975
2023-10-21 23:45:02.428,17975,218794,192903,-2753,-0.842899775,-2662,-0.81503785
2023-10-21 23:45:02.428,17976,218702,192841,-2868,-0.8781099,-2671,-0.817793425
2023-10-21 23:45:02.428,17977,218608,192808,-3192,-0.9773106,-2690,-0.82361075
2023-10-21 23:45:02.428,17978,218474,192730,-3060,-0.9368955,-2706,-0.82850955
2023-10-21 23:45:02.428,17979,218303,192654,-2875,-0.880253125,-2703,-0.827591025
2023-10-21 23:45:02.428,17980,218135,192585,-3234,-0.99016995,-2698,-0.82606015
2023-10-21 23:45:02.428,17981,217945,192505,-3337,-1.021705975,-2704,-0.8278972
2023-10-21 23:45:02.458,17982,217742,192427,-2954,-0.90444095,-2716,-0.8315713
2023-10-21 23:45:02.458,17983,217547,192329,-3110,-0.95220425,-2735,-0.837388625
2023-10-21 23:45:02.458,17984,217327,192249,-3351,-1.025992425,-2764,-0.8462677
2023-10-21 23:45:02.458,17985,217143,192164,-3015,-0.923117625,-2784,-0.8523912
2023-10-21 23:45:02.458,17986,216932,192075,-2892,-0.8854581,-2788,-0.8536159
2023-10-21 23:45:02.458,17987,216750,192011,-3241,-0.992313175,-2791,-0.854534425
2023-10-21 23:45:02.489,17988,216564,191937,-3157,-0.966594475,-2796,-0.8560653
2023-10-21 23:45:02.489,17989,216410,191879,-2862,-0.87627285,-2799,-0.856983825
2023-10-21 23:45:02.489,17990,216259,191821,-3108,-0.9515919,-2811,-0.860657925
2023-10-21 23:45:02.489,17991,216133,191753,-3155,-0.965982125,-2829,-0.866169075
2023-10-21 23:45:02.489,17992,216024,191716,-2679,-0.820242825,-2840,-0.869537
2023-10-21 23:45:02.521,17993,215923,191686,-2705,-0.828203375,-2845,-0.871067875
2023-10-21 23:45:02.521,17994,215829,191656,-2707,-0.828815725,-2853,-0.873517275
2023-10-21 23:45:02.521,17995,215769,191636,-2450,-0.75012875,-2858,-0.87504815
2023-10-21 23:45:02.521,17996,215714,191611,-2248,-0.6882814,-2866,-0.87749755
2023-10-21 23:45:02.521,17997,215681,191599,-2734,-0.83708245,-2893,-0.885764275
2023-10-21 23:45:02.521,17998,215668,191577,-2623,-0.803097025,-2933,-0.898011275
2023-10-21 23:45:02.521,17999,215654,191580,-2233,-0.683688775,-2967,-0.908421225
2023-10-21 23:45:02.552,18000,215614,191573,-2472,-0.7568646,-3001,-0.918831175
2023-10-21 23:45:02.552,18001,215609,191561,-2611,-0.799422925,-3037,-0.929853475
2023-10-21 23:45:02.552,18002,215603,191553,-2357,-0.721654475,-3060,-0.9368955
2023-10-21 23:45:02.552,18003,215596,191569,-2390,-0.73175825,-3074,-0.94118195
2023-10-21 23:45:02.552,18004,215594,191549,-2713,-0.830652775,-3092,-0.9466931
2023-10-21 23:45:02.552,18005,215585,191544,-2433,-0.744923775,-3108,-0.9515919
2023-10-21 23:45:02.583,18006,215581,191554,-2378,-0.72808415,-3118,-0.95465365
2023-10-21 23:45:02.583,18007,215560,191546,-2756,-0.8438183,-3125,-0.956796875
2023-10-21 23:45:02.583,18008,215546,191522,-2520,-0.771561,-3122,-0.95587835
2023-10-21 23:45:02.583,18009,215512,191513,-2212,-0.6772591,-3097,-0.948223975
2023-10-21 23:45:02.583,18010,215499,191512,-2520,-0.771561,-3064,-0.9381202
2023-10-21 23:45:02.614,18011,215473,191491,-2647,-0.810445225,-3027,-0.926791725
2023-10-21 23:45:02.614,18012,215434,191468,-2266,-0.69379255,-2930,-0.89709275
2023-10-21 23:45:02.614,18013,215407,191455,-2351,-0.719817425,-2723,-0.833714525
2023-10-21 23:45:02.614,18014,215375,191447,-2718,-0.83218365,-2648,-0.8107514
2023-10-21 23:45:02.614,18015,215347,191419,-2462,-0.75380285,-2616,-0.8009538
2023-10-21 23:45:02.614,18016,215306,191430,-2318,-0.70971365,-2546,-0.77952155
2023-10-21 23:45:02.645,18017,215258,191408,-2812,-0.8609641,-2533,-0.775541275
2023-10-21 23:45:02.645,18018,215233,191374,-2568,-0.7862574,-2571,-0.787175925
2023-10-21 23:45:02.645,18019,215194,191369,-2157,-0.660419475,-2573,-0.787788275
2023-10-21 23:45:02.645,18020,215164,191348,-2464,-0.7544152,-2552,-0.7813586
2023-10-21 23:45:02.645,18021,215145,191343,-2630,-0.80524025,-2522,-0.77217335
2023-10-21 23:45:02.645,18022,215129,191344,-2249,-0.688587575,-2497,-0.764518975
2023-10-21 23:45:02.676,18023,215117,191351,-2268,-0.6944049,-2481,-0.759620175
2023-10-21 23:45:02.676,18024,215108,191341,-2572,-0.7874821,-2485,-0.760844875
2023-10-21 23:45:02.676,18025,215122,191332,-2348,-0.7188989,-2492,-0.7629881
2023-10-21 23:45:02.676,18026,215152,191345,-2296,-0.7029778,-2491,-0.762681925
2023-10-21 23:45:02.676,18027,215165,191356,-2692,-0.8242231,-2496,-0.7642128
2023-10-21 23:45:02.676,18028,215206,191367,-2449,-0.749822575,-2502,-0.76604985
2023-10-21 23:45:02.676,18029,215251,191400,-2162,-0.66195035,-2496,-0.7642128
2023-10-21 23:45:02.707,18030,215283,191395,-2543,-0.778603025,-2486,-0.76115105
2023-10-21 23:45:02.707,18031,215310,191402,-2808,-0.8597394,-2485,-0.760844875
2023-10-21 23:45:02.707,18032,215360,191429,-2438,-0.74645465,-2484,-0.7605387
2023-10-21 23:45:02.707,18033,215388,191441,-2492,-0.7629881,-2486,-0.76115105
2023-10-21 23:45:02.707,18034,215412,191453,-2712,-0.8303466,-2496,-0.7642128
2023-10-21 23:45:02.707,18035,215448,191464,-2434,-0.74522995,-2499,-0.765131325
2023-10-21 23:45:02.707,18036,215483,191476,-2236,-0.6846073,-2490,-0.76237575
2023-10-21 23:45:02.741,18037,215496,191480,-2614,-0.80034145,-2484,-0.7605387
2023-10-21 23:45:02.741,18038,215531,191486,-2482,-0.75992635,-2483,-0.760232525
2023-10-21 23:45:02.741,18039,215532,191479,-2221,-0.680014675,-2476,-0.7580893
2023-10-21 23:45:02.741,18040,215521,191480,-2607,-0.798198225,-2470,-0.75625225
2023-10-21 23:45:02.741,18041,215531,191498,-2869,-0.878416075,-2470,-0.75625225
2023-10-21 23:45:02.741,18042,215528,191477,-2465,-0.754721375,-2464,-0.7544152
2023-10-21 23:45:02.770,18043,215534,191483,-2560,-0.783808,-2454,-0.75135345
2023-10-21 23:45:02.770,18044,215525,191481,-2744,-0.8401442,-2450,-0.75012875
2023-10-21 23:45:02.770,18045,215519,191479,-2448,-0.7495164,-2441,-0.747373175
2023-10-21 23:45:02.770,18046,215508,191478,-2469,-0.755946075,-2425,-0.742474375
2023-10-21 23:45:02.770,18047,215499,191467,-2772,-0.8487171,-2423,-0.741862025
2023-10-21 23:45:02.770,18048,215496,191475,-2478,-0.75870165,-2434,-0.74522995
2023-10-21 23:45:02.770,18049,215486,191462,-2075,-0.635313125,-2442,-0.74767935
2023-10-21 23:45:02.800,18050,215468,191462,-2569,-0.786563575,-2453,-0.751047275
2023-10-21 23:45:02.800,18051,215490,191466,-2753,-0.842899775,-2472,-0.7568646
2023-10-21 23:45:02.800,18052,215471,191456,-2332,-0.7140001,-2486,-0.76115105
2023-10-21 23:45:02.800,18053,215507,191474,-2421,-0.741249675,-2494,-0.76360045
2023-10-21 23:45:02.800,18054,215515,191481,-2758,-0.84443065,-2503,-0.766356025
2023-10-21 23:45:02.800,18055,215527,191477,-2455,-0.751659625,-2504,-0.7666622
2023-10-21 23:45:02.831,18056,215551,191480,-2262,-0.69256785,-2497,-0.764518975
2023-10-21 23:45:02.831,18057,215576,191493,-2555,-0.782277125,-2499,-0.765131325
2023-10-21 23:45:02.831,18058,215598,191509,-2445,-0.748597875,-2510,-0.76849925
2023-10-21 23:45:02.831,18059,215611,191506,-2247,-0.687975225,-2515,-0.770030125
2023-10-21 23:45:02.831,18060,215655,191531,-2640,-0.808302,-2520,-0.771561
2023-10-21 23:45:02.862,18061,215680,191534,-2673,-0.818405775,-2531,-0.774928925
2023-10-21 23:45:02.862,18062,215714,191559,-2162,-0.66195035,-2536,-0.7764598
2023-10-21 23:45:02.862,18063,215756,191565,-2215,-0.678177625,-2538,-0.77707215
2023-10-21 23:45:02.862,18064,215777,191595,-2677,-0.819630475,-2547,-0.779827725
2023-10-21 23:45:02.862,18065,215830,191603,-2445,-0.748597875,-2550,-0.78074625
2023-10-21 23:45:02.862,18066,215868,191622,-2303,-0.705121025,-2544,-0.7789092
2023-10-21 23:45:02.862,18067,215929,191649,-2582,-0.79054385,-2547,-0.779827725
2023-10-21 23:45:02.894,18068,215955,191670,-2458,-0.75257815,-2556,-0.7825833
2023-10-21 23:45:02.894,18069,216004,191679,-2298,-0.70359015,-2551,-0.781052425
2023-10-21 23:45:02.894,18070,216058,191710,-2605,-0.797585875,-2540,-0.7776845
2023-10-21 23:45:02.894,18071,216089,191721,-2550,-0.78074625,-2531,-0.774928925
2023-10-21 23:45:02.894,18072,216123,191738,-2275,-0.696548125,-2518,-0.77094865
2023-10-21 23:45:02.894,18073,216169,191741,-2365,-0.724103875,-2505,-0.766968375
2023-10-21 23:45:02.926,18074,216188,191776,-2608,-0.7985044,-2497,-0.764518975
2023-10-21 23:45:02.926,18075,216214,191781,-2390,-0.73175825,-2487,-0.761457225
2023-10-21 23:45:02.926,18076,216262,191786,-2309,-0.706958075,-2477,-0.758395475
2023-10-21 23:45:02.926,18077,216263,191778,-2612,-0.7997291,-2480,-0.759314
2023-10-21 23:45:02.926,18078,216294,191793,-2558,-0.78319565,-2485,-0.760844875
2023-10-21 23:45:02.957,18079,216322,191808,-2233,-0.683688775,-2475,-0.757783125
2023-10-21 23:45:02.957,18080,216360,191821,-2465,-0.754721375,-2464,-0.7544152
2023-10-21 23:45:02.957,18081,216386,191834,-2533,-0.775541275,-2462,-0.75380285
2023-10-21 23:45:02.957,18082,216429,191852,-2246,-0.68766905,-2458,-0.75257815
2023-10-21 23:45:02.957,18083,216466,191863,-2437,-0.746148475,-2449,-0.749822575
2023-10-21 23:45:02.957,18084,216485,191861,-2643,-0.809220525,-2444,-0.7482917
2023-10-21 23:45:02.988,18085,216523,191881,-2372,-0.7262471,-2439,-0.746760825
2023-10-21 23:45:02.988,18086,216540,191894,-2306,-0.70603955,-2436,-0.7458423
2023-10-21 23:45:02.988,18087,216561,191902,-2642,-0.80891435,-2444,-0.7482917
2023-10-21 23:45:02.988,18088,216589,191887,-2589,-0.792687075,-2453,-0.751047275
2023-10-21 23:45:02.988,18089,216583,191895,-2403,-0.735738525,-2449,-0.749822575
2023-10-21 23:45:02.988,18090,216624,191924,-2532,-0.7752351,-2448,-0.7495164
2023-10-21 23:45:03.019,18091,216639,191915,-2599,-0.795748825,-2453,-0.751047275
2023-10-21 23:45:03.019,18092,216676,191921,-2276,-0.6968543,-2450,-0.75012875
2023-10-21 23:45:03.019,18093,216697,191940,-2332,-0.7140001,-2445,-0.748597875
2023-10-21 23:45:03.019,18094,216692,191957,-2601,-0.796361175,-2450,-0.75012875
2023-10-21 23:45:03.019,18095,216714,191948,-2269,-0.694711075,-2457,-0.752271975
2023-10-21 23:45:03.019,18096,216761,191968,-2106,-0.64480455,-2459,-0.752884325
2023-10-21 23:45:03.019,18097,216763,191962,-2561,-0.784114175,-2458,-0.75257815
2023-10-21 23:45:03.050,18098,216794,191975,-2601,-0.796361175,-2453,-0.751047275
2023-10-21 23:45:03.050,18099,216825,192001,-2292,-0.7017531,-2442,-0.74767935
2023-10-21 23:45:03.050,18100,216834,192014,-2359,-0.722266825,-2438,-0.74645465
2023-10-21 23:45:03.050,18101,216867,192022,-2398,-0.73420765,-2443,-0.747985525
2023-10-21 23:45:03.050,18102,216884,192019,-2132,-0.6527651,-2445,-0.748597875
2023-10-21 23:45:03.050,18103,216918,192034,-2266,-0.69379255,-2444,-0.7482917
2023-10-21 23:45:03.050,18104,216949,192057,-2317,-0.709407475,-2450,-0.75012875
2023-10-21 23:45:03.081,18105,216979,192057,-2208,-0.6760344,-2456,-0.7519658
2023-10-21 23:45:03.081,18106,216994,192061,-2076,-0.6356193,-2458,-0.75257815
2023-10-21 23:45:03.081,18107,217023,192064,-2308,-0.7066519,-2464,-0.7544152
2023-10-21 23:45:03.081,18108,217034,192076,-2196,-0.6723603,-2471,-0.756558425
2023-10-21 23:45:03.081,18109,217070,192083,-2052,-0.6282711,-2473,-0.757170775
2023-10-21 23:45:03.081,18110,217086,192094,-2326,-0.71216305,-2474,-0.75747695
2023-10-21 23:45:03.112,18111,217109,192104,-2255,-0.690424625,-2478,-0.75870165
2023-10-21 23:45:03.112,18112,217133,192112,-2031,-0.621841425,-2472,-0.7568646
2023-10-21 23:45:03.112,18113,217142,192121,-2142,-0.65582685,-2458,-0.75257815
2023-10-21 23:45:03.112,18114,217180,192135,-2418,-0.74033115,-2451,-0.750434925
2023-10-21 23:45:03.112,18115,217203,192137,-2257,-0.691036975,-2445,-0.748597875
2023-10-21 23:45:03.112,18116,217236,192152,-2091,-0.640211925,-2434,-0.74522995
2023-10-21 23:45:03.112,18117,217258,192167,-2553,-0.781664775,-2424,-0.7421682
2023-10-21 23:45:03.143,18118,217285,192172,-2596,-0.7948303,-2414,-0.73910645
2023-10-21 23:45:03.143,18119,217305,192176,-2589,-0.792687075,-2398,-0.73420765
2023-10-21 23:45:03.143,18120,217323,192196,-3179,-0.973330325,-2382,-0.72930885
2023-10-21 23:45:03.143,18121,217355,192200,-3680,-1.126724,-2367,-0.724716225
2023-10-21 23:45:03.143,18122,217382,192212,-3478,-1.06487665,-2345,-0.717980375
2023-10-21 23:45:03.143,18123,217407,192224,-3166,-0.96935005,-2325,-0.711856875
2023-10-21 23:45:03.174,18124,217425,192229,-2816,-0.8621888,-2316,-0.7091013
2023-10-21 23:45:03.175,18125,217447,192247,-2090,-0.63990575,-2305,-0.705733375
2023-10-21 23:45:03.175,18126,217479,192260,-1646,-0.50396405,-2284,-0.6993037
2023-10-21 23:45:03.175,18127,217512,192264,-2102,-0.64357985,-2265,-0.693486375
2023-10-21 23:45:03.175,18128,217530,192280,-2046,-0.62643405,-2247,-0.687975225
2023-10-21 23:45:03.175,18129,217552,192272,-1791,-0.548359425,-2225,-0.681239375
2023-10-21 23:45:03.175,18130,217573,192295,-2123,-0.650009525,-2209,-0.676340575
2023-10-21 23:45:03.175,18131,217609,192300,-2262,-0.69256785,-2205,-0.675115875
2023-10-21 23:45:03.175,18132,217641,192319,-1968,-0.6025524,-2205,-0.675115875
2023-10-21 23:45:03.205,18133,217668,192309,-2193,-0.671441775,-2208,-0.6760344
2023-10-21 23:45:03.205,18134,217685,192322,-2394,-0.73298295,-2222,-0.68032085
2023-10-21 23:45:03.205,18135,217693,192322,-2057,-0.629801975,-2243,-0.686750525
2023-10-21 23:45:03.205,18136,217729,192356,-1930,-0.59091775,-2273,-0.695935775
2023-10-21 23:45:03.205,18137,217745,192351,-2320,-0.710326,-2528,-0.7740104
2023-10-21 23:45:03.205,18138,217781,192356,-2173,-0.665318275,-2981,-0.912707675
2023-10-21 23:45:03.205,18139,217814,192364,-1841,-0.563668175,-3252,-0.9956811
2023-10-21 23:45:03.236,18140,217841,192385,-2293,-0.702059275,-3296,-1.0091528
2023-10-21 23:45:03.236,18141,217898,192406,-2322,-0.71093835,-3157,-0.966594475
2023-10-21 23:45:03.236,18142,217929,192422,-1948,-0.5964289,-2824,-0.8646382
2023-10-21 23:45:03.236,18143,217941,192429,-2096,-0.6417428,-2437,-0.746148475
2023-10-21 23:45:03.236,18144,217982,192450,-2446,-0.74890405,-2173,-0.665318275
2023-10-21 23:45:03.267,18145,218032,192462,-2290,-0.70114075,-1969,-0.602858575
2023-10-21 23:45:03.267,18146,218063,192483,-2000,-0.61235,-1804,-0.5523397
2023-10-21 23:45:03.267,18147,218099,192509,-2443,-0.747985525,-1844,-0.5645867
2023-10-21 23:45:03.267,18148,218139,192510,-2539,-0.777378325,-2032,-0.6221476
2023-10-21 23:45:03.267,18149,218166,192528,-2084,-0.6380687,-2178,-0.66684915
2023-10-21 23:45:03.267,18150,218203,192540,-2366,-0.72441005,-2275,-0.696548125
2023-10-21 23:45:03.267,18151,218235,192550,-2445,-0.748597875,-2297,-0.703283975
2023-10-21 23:45:03.267,18152,218259,192566,-2104,-0.6441922,-2173,-0.665318275
2023-10-21 23:45:03.298,18153,218303,192572,-2212,-0.6772591,-2063,-0.631639025
2023-10-21 23:45:03.298,18154,218325,192568,-2587,-0.792074725,-2059,-0.630414325
2023-10-21 23:45:03.298,18155,218355,192590,-2372,-0.7262471,-2083,-0.637762525
2023-10-21 23:45:03.298,18156,218363,192599,-2350,-0.71951125,-2094,-0.64113045
2023-10-21 23:45:03.298,18157,218383,192609,-2796,-0.8560653,-2119,-0.648784825
2023-10-21 23:45:03.298,18158,218409,192603,-2612,-0.7997291,-2156,-0.6601133
2023-10-21 23:45:03.330,18159,218381,192591,-2478,-0.75870165,-2165,-0.662868875
2023-10-21 23:45:03.330,18160,218354,192601,-2720,-0.832796,-2158,-0.66072565
2023-10-21 23:45:03.331,18161,218305,192552,-2918,-0.89341865,-2151,-0.658582425
2023-10-21 23:45:03.331,18162,218235,192524,-2560,-0.783808,-2148,-0.6576639
2023-10-21 23:45:03.331,18163,218147,192482,-2721,-0.833102175,-2154,-0.65950095
2023-10-21 23:45:03.361,18164,218023,192418,-3084,-0.9442437,-2178,-0.66684915
2023-10-21 23:45:03.361,18165,217884,192361,-2776,-0.8499418,-2203,-0.674503525
2023-10-21 23:45:03.361,18166,217735,192288,-2737,-0.838000975,-2219,-0.679402325
2023-10-21 23:45:03.361,18167,217563,192218,-3066,-0.93873255,-2233,-0.683688775
2023-10-21 23:45:03.361,18168,217415,192129,-2978,-0.91178915,-2248,-0.6882814
2023-10-21 23:45:03.361,18169,217228,192072,-2766,-0.84688005,-2257,-0.691036975
2023-10-21 23:45:03.392,18170,217043,191994,-3071,-0.940263425,-2273,-0.695935775
2023-10-21 23:45:03.392,18171,216880,191904,-3198,-0.97914765,-2297,-0.703283975
2023-10-21 23:45:03.392,18172,216664,191841,-2868,-0.8781099,-2314,-0.70848895
2023-10-21 23:45:03.392,18173,216502,191769,-2909,-0.890663075,-2325,-0.711856875
2023-10-21 23:45:03.392,18174,216356,191683,-3236,-0.9907823,-2348,-0.7188989
2023-10-21 23:45:03.392,18175,216193,191641,-3085,-0.944549875,-2375,-0.727165625
2023-10-21 23:45:03.424,18176,216069,191582,-2827,-0.865556725,-2397,-0.733901475
2023-10-21 23:45:03.424,18177,215920,191530,-3119,-0.954959825,-2430,-0.74400525
2023-10-21 23:45:03.424,18178,215818,191492,-2894,-0.88607045,-2495,-0.763906625
2023-10-21 23:45:03.424,18179,215744,191462,-2573,-0.787788275,-2549,-0.780440075
2023-10-21 23:45:03.424,18180,215675,191423,-2762,-0.84565535,-2578,-0.78931915
2023-10-21 23:45:03.455,18181,215610,191406,-2816,-0.8621888,-2622,-0.80279085
2023-10-21 23:45:03.455,18182,215547,191381,-2390,-0.73175825,-2653,-0.812282275
2023-10-21 23:45:03.455,18183,215509,191353,-2270,-0.69501725,-2680,-0.820549
2023-10-21 23:45:03.455,18184,215460,191342,-2680,-0.820549,-2727,-0.834939225
2023-10-21 23:45:03.455,18185,215453,191350,-2233,-0.683688775,-2767,-0.847186225
2023-10-21 23:45:03.455,18186,215409,191329,-2170,-0.66439975,-2798,-0.85667765
2023-10-21 23:45:03.486,18187,215405,191326,-2482,-0.75992635,-2830,-0.86647525
2023-10-21 23:45:03.486,18188,215397,191324,-2411,-0.738187925,-2863,-0.876579025
2023-10-21 23:45:03.486,18189,215396,191308,-2088,-0.6392934,-2887,-0.883927225
2023-10-21 23:45:03.486,18190,215379,191318,-2460,-0.7531905,-2911,-0.891275425
2023-10-21 23:45:03.486,18191,215372,191306,-2663,-0.815344025,-2941,-0.900460675
2023-10-21 23:45:03.486,18192,215379,191295,-2311,-0.707570425,-2966,-0.90811505
2023-10-21 23:45:03.518,18193,215372,191309,-2407,-0.736963225,-2983,-0.913320025
2023-10-21 23:45:03.518,18194,215362,191296,-2650,-0.81136375,-3000,-0.918525
2023-10-21 23:45:03.518,18195,215343,191310,-2470,-0.75625225,-3005,-0.920055875
2023-10-21 23:45:03.518,18196,215346,191302,-2222,-0.68032085,-2995,-0.916994125
2023-10-21 23:45:03.518,18197,215332,191284,-2602,-0.79666735,-2981,-0.912707675
2023-10-21 23:45:03.518,18198,215312,191278,-2599,-0.795748825,-2961,-0.906584175
2023-10-21 23:45:03.518,18199,215281,191265,-2272,-0.6956296,-2924,-0.8952557
2023-10-21 23:45:03.548,18200,215262,191253,-2555,-0.782277125,-2727,-0.834939225
2023-10-21 23:45:03.548,18201,215219,191239,-2692,-0.8242231,-2632,-0.8058526
2023-10-21 23:45:03.548,18202,215206,191210,-2435,-0.745536125,-2541,-0.777990675
2023-10-21 23:45:03.548,18203,215155,191219,-2562,-0.78442035,-2450,-0.75012875
2023-10-21 23:45:03.548,18204,215113,191185,-2752,-0.8425936,-2443,-0.747985525
2023-10-21 23:45:03.548,18205,215083,191167,-2336,-0.7152248,-2447,-0.749210225
2023-10-21 23:45:03.548,18206,215048,191150,-2265,-0.693486375,-2422,-0.74155585
2023-10-21 23:45:03.579,18207,215012,191135,-2731,-0.836163925,-2437,-0.746148475
2023-10-21 23:45:03.579,18208,214981,191126,-2703,-0.827591025,-2436,-0.7458423
2023-10-21 23:45:03.579,18209,214972,191109,-2448,-0.7495164,-2408,-0.7372694
2023-10-21 23:45:03.579,18210,214949,191115,-2746,-0.84075655,-2392,-0.7323706
2023-10-21 23:45:03.579,18211,214941,191120,-2974,-0.91056445,-2392,-0.7323706
2023-10-21 23:45:03.579,18212,214955,191111,-2524,-0.7727857,-2396,-0.7335953
2023-10-21 23:45:03.610,18213,214975,191117,-2623,-0.803097025,-2401,-0.735126175
2023-10-21 23:45:03.610,18214,215007,191132,-3004,-0.9197497,-2416,-0.7397188
2023-10-21 23:45:03.610,18215,215020,191154,-2796,-0.8560653,-2431,-0.744311425
2023-10-21 23:45:03.610,18216,215044,191155,-2708,-0.8291219,-2441,-0.747373175
2023-10-21 23:45:03.610,18217,215109,191177,-2975,-0.910870625,-2456,-0.7519658
2023-10-21 23:45:03.610,18218,215114,191176,-2891,-0.885151925,-2474,-0.75747695
2023-10-21 23:45:03.610,18219,215150,191204,-2609,-0.798810575,-2484,-0.7605387
2023-10-21 23:45:03.641,18220,215187,191223,-2867,-0.877803725,-2496,-0.7642128
2023-10-21 23:45:03.641,18221,215226,191234,-2934,-0.89831745,-2512,-0.7691116
2023-10-21 23:45:03.641,18222,215244,191229,-2646,-0.81013905,-2515,-0.770030125
2023-10-21 23:45:03.641,18223,215292,191237,-2738,-0.83830715,-2510,-0.76849925
2023-10-21 23:45:03.641,18224,215307,191259,-2977,-0.911482975,-2515,-0.770030125
2023-10-21 23:45:03.641,18225,215338,191277,-2773,-0.849023275,-2524,-0.7727857
2023-10-21 23:45:03.675,18226,215358,191277,-2549,-0.780440075,-2530,-0.77462275
2023-10-21 23:45:03.675,18227,215356,191297,-2947,-0.902297725,-2546,-0.77952155
2023-10-21 23:45:03.675,18228,215378,191284,-2832,-0.8670876,-2571,-0.787175925
2023-10-21 23:45:03.675,18229,215371,191296,-2663,-0.815344025,-2590,-0.79299325
2023-10-21 23:45:03.675,18230,215403,191283,-2880,-0.881784,-2606,-0.79789205
2023-10-21 23:45:03.704,18231,215408,191290,-2879,-0.881477825,-2626,-0.80401555
2023-10-21 23:45:03.704,18232,215389,191287,-2427,-0.743086725,-2645,-0.809832875
2023-10-21 23:45:03.704,18233,215401,191294,-2510,-0.76849925,-2668,-0.8168749
2023-10-21 23:45:03.704,18234,215420,191294,-2819,-0.863107325,-2702,-0.82728485
2023-10-21 23:45:03.704,18235,215403,191295,-2542,-0.77829685,-2733,-0.836776275
2023-10-21 23:45:03.704,18236,215389,191286,-2138,-0.65460215,-2756,-0.8438183
2023-10-21 23:45:03.704,18237,215415,191292,-2415,-0.739412625,-2781,-0.851472675
2023-10-21 23:45:03.736,18238,215413,191284,-2305,-0.705733375,-2802,-0.85790235
2023-10-21 23:45:03.736,18239,215420,191277,-1918,-0.58724365,-2807,-0.859433225
2023-10-21 23:45:03.736,18240,215425,191295,-2096,-0.6417428,-2809,-0.860045575
2023-10-21 23:45:03.736,18241,215451,191302,-2358,-0.72196065,-2815,-0.861882625
2023-10-21 23:45:03.736,18242,215478,191301,-1935,-0.592448625,-2815,-0.861882625
2023-10-21 23:45:03.736,18243,215476,191321,-2057,-0.629801975,-2811,-0.860657925
2023-10-21 23:45:03.767,18244,215505,191325,-2314,-0.70848895,-2812,-0.8609641
2023-10-21 23:45:03.767,18245,215528,191342,-2086,-0.63868105,-2811,-0.860657925
2023-10-21 23:45:03.767,18246,215581,191346,-1930,-0.59091775,-2805,-0.858820875
2023-10-21 23:45:03.767,18247,215611,191375,-2410,-0.73788175,-2801,-0.857596175
2023-10-21 23:45:03.767,18248,215650,191384,-2292,-0.7017531,-2797,-0.856371475
2023-10-21 23:45:03.767,18249,215671,191388,-1922,-0.58846835,-2784,-0.8523912
2023-10-21 23:45:03.767,18250,215716,191417,-2192,-0.6711356,-2770,-0.84810475
2023-10-21 23:45:03.767,18251,215741,191433,-2423,-0.741862025,-2762,-0.84565535
2023-10-21 23:45:03.799,18252,215778,191452,-2096,-0.6417428,-2745,-0.840450375
2023-10-21 23:45:03.799,18253,215818,191467,-2132,-0.6527651,-2712,-0.8303466
2023-10-21 23:45:03.799,18254,215855,191488,-2572,-0.7874821,-2675,-0.819018125
2023-10-21 23:45:03.799,18255,215886,191509,-2331,-0.713693925,-2542,-0.77829685
2023-10-21 23:45:03.799,18256,215929,191502,-2091,-0.640211925,-2400,-0.73482
2023-10-21 23:45:03.799,18257,215966,191523,-2441,-0.747373175,-2305,-0.705733375
2023-10-21 23:45:03.799,18258,215978,191544,-2372,-0.7262471,-2277,-0.697160475
2023-10-21 23:45:03.829,18259,216014,191537,-2153,-0.659194775,-2221,-0.680014675
2023-10-21 23:45:03.829,18260,216047,191562,-2288,-0.7005284,-2182,-0.66807385
2023-10-21 23:45:03.829,18261,216058,191572,-2502,-0.76604985,-2210,-0.67664675
2023-10-21 23:45:03.829,18262,216100,191578,-2206,-0.67542205,-2220,-0.6797085
2023-10-21 23:45:03.829,18263,216132,191599,-2038,-0.62398465,-2196,-0.6723603
2023-10-21 23:45:03.861,18264,216165,191606,-2359,-0.722266825,-2173,-0.665318275
2023-10-21 23:45:03.861,18265,216179,191607,-2335,-0.714918625,-2160,-0.661338
2023-10-21 23:45:03.861,18266,216220,191627,-2126,-0.65092805,-2145,-0.656745375
2023-10-21 23:45:03.891,18267,216219,191633,-2363,-0.723491525,-2140,-0.6552145
2023-10-21 23:45:03.891,18268,216256,191637,-2423,-0.741862025,-2148,-0.6576639
2023-10-21 23:45:03.891,18269,216285,191656,-2114,-0.64725395,-2155,-0.659807125
2023-10-21 23:45:03.891,18270,216333,191671,-2261,-0.692261675,-2167,-0.663481225
2023-10-21 23:45:03.891,18271,216348,191682,-2351,-0.719817425,-2189,-0.670217075
2023-10-21 23:45:03.891,18272,216380,191699,-1988,-0.6086759,-2207,-0.675728225
2023-10-21 23:45:03.924,18273,216392,191697,-2153,-0.659194775,-2221,-0.680014675
2023-10-21 23:45:03.924,18274,216447,191701,-2491,-0.762681925,-2238,-0.68521965
2023-10-21 23:45:03.924,18275,216447,191718,-2289,-0.700834575,-2253,-0.689812275
2023-10-21 23:45:03.924,18276,216477,191736,-2033,-0.622453775,-2262,-0.69256785
2023-10-21 23:45:03.924,18277,216502,191741,-2337,-0.715530975,-2275,-0.696548125
2023-10-21 23:45:03.924,18278,216532,191753,-2385,-0.730227375,-2291,-0.701446925
2023-10-21 23:45:03.954,18279,216566,191760,-2147,-0.657357725,-2297,-0.703283975
2023-10-21 23:45:03.954,18280,216584,191772,-2407,-0.736963225,-2297,-0.703283975
2023-10-21 23:45:03.954,18281,216609,191788,-2436,-0.7458423,-2300,-0.7042025
2023-10-21 23:45:03.954,18282,216650,191797,-2025,-0.620004375,-2299,-0.703896325
2023-10-21 23:45:03.954,18283,216688,191816,-2218,-0.67909615,-2292,-0.7017531
2023-10-21 23:45:03.954,18284,216716,191820,-2799,-0.856983825,-2290,-0.70114075
2023-10-21 23:45:03.954,18285,216748,191842,-2341,-0.716755675,-2288,-0.7005284
2023-10-21 23:45:03.985,18286,216757,191833,-2105,-0.644498375,-2280,-0.698079
2023-10-21 23:45:03.985,18287,216783,191867,-2459,-0.752884325,-2277,-0.697160475
2023-10-21 23:45:03.985,18288,216838,191881,-2442,-0.74767935,-2277,-0.697160475
2023-10-21 23:45:03.985,18289,216859,191882,-2303,-0.705121025,-2268,-0.6944049
2023-10-21 23:45:03.985,18290,216868,191887,-2534,-0.77584745,-2257,-0.691036975
2023-10-21 23:45:03.985,18291,216907,191902,-2551,-0.781052425,-2258,-0.69134315
2023-10-21 23:45:03.985,18292,216930,191901,-2191,-0.670829425,-2257,-0.691036975
2023-10-21 23:45:04.016,18293,216948,191913,-2319,-0.710019825,-2251,-0.689199925
2023-10-21 23:45:04.016,18294,216970,191917,-2580,-0.7899315,-2251,-0.689199925
2023-10-21 23:45:04.016,18295,217007,191938,-2448,-0.7495164,-2256,-0.6907308
2023-10-21 23:45:04.016,18296,217047,191960,-2387,-0.730839725,-2257,-0.691036975
2023-10-21 23:45:04.016,18297,217081,191958,-2636,-0.8070773,-2261,-0.692261675
2023-10-21 23:45:04.048,18298,217097,191967,-2649,-0.811057575,-2264,-0.6931802
2023-10-21 23:45:04.048,18299,217141,191990,-2475,-0.757783125,-2259,-0.691649325
2023-10-21 23:45:04.048,18300,217166,191995,-2563,-0.784726525,-2263,-0.692874025
