Time, Sample Count, IR Count, Red Count, Raw ECG, Raw ECG (mV), Filtered ECG, Filtered ECG (mV)
2023-10-21 23:46:49.832,19021,214971,191427,-9911,-3.034500425,-10306,-3.15543955
2023-10-21 23:46:49.863,19022,214761,191320,-8258,-2.52839315,-10363,-3.172891525
2023-10-21 23:46:49.863,19023,214490,191223,-8276,-2.5339043,-10174,-3.11502445
2023-10-21 23:46:49.863,19024,214263,191131,-9554,-2.92519595,-10253,-3.139212275
2023-10-21 23:46:49.863,19025,214002,191025,-8488,-2.5988134,-10286,-3.14931605
2023-10-21 23:46:49.895,19026,213805,190945,-7546,-2.31039655,-10062,-3.08073285
2023-10-21 23:46:49.895,19027,213586,190864,-9040,-2.767822,-9942,-3.04399185
2023-10-21 23:46:49.895,19028,213383,190784,-8841,-2.706893175,-10051,-3.077364925
2023-10-21 23:46:49.895,19029,213203,190716,-7384,-2.2607962,-9919,-3.036949825
2023-10-21 23:46:49.895,19030,213073,190660,-8193,-2.508491775,-9715,-2.974490125
2023-10-21 23:46:49.926,19031,212947,190616,-8924,-2.7323057,-9824,-3.0078632
2023-10-21 23:46:49.926,19032,212833,190571,-7552,-2.3122336,-9791,-2.997759425
2023-10-21 23:46:49.926,19033,212734,190532,-7459,-2.283759325,-9543,-2.921828025
2023-10-21 23:46:49.926,19034,212690,190516,-8701,-2.664028675,-9574,-2.93131945
2023-10-21 23:46:49.955,19035,212626,190480,-7795,-2.386634125,-9633,-2.949383775
2023-10-21 23:46:49.955,19036,212588,190469,-6776,-2.0746418,-9388,-2.8743709
2023-10-21 23:46:49.955,19037,212542,190443,-8156,-2.4971633,-9228,-2.8253829
2023-10-21 23:46:49.955,19038,212515,190429,-8018,-2.45491115,-9256,-2.8339558
2023-10-21 23:46:49.955,19039,212496,190424,-6552,-2.0060586,-9008,-2.7580244
2023-10-21 23:46:49.955,19040,212480,190418,-7392,-2.2632456,-8775,-2.686685625
2023-10-21 23:46:49.955,19041,212460,190415,-8232,-2.5204326,-8905,-2.726488375
2023-10-21 23:46:49.987,19042,212461,190417,-6890,-2.10954575,-8850,-2.70964875
2023-10-21 23:46:49.987,19043,212463,190390,-6693,-2.049229275,-8550,-2.61779625
2023-10-21 23:46:49.987,19044,212427,190387,-7991,-2.446644425,-8530,-2.61167275
2023-10-21 23:46:49.987,19045,212421,190382,-7220,-2.2105835,-8532,-2.6122851
2023-10-21 23:46:49.987,19046,212399,190377,-6461,-1.978196675,-8258,-2.52839315
2023-10-21 23:46:49.987,19047,212370,190349,-7937,-2.430110975,-8195,-2.509104125
2023-10-21 23:46:49.987,19048,212361,190343,-7947,-2.433172725,-8368,-2.5620724
2023-10-21 23:46:49.987,19049,212314,190331,-6479,-1.983707825,-8253,-2.526862275
2023-10-21 23:46:50.018,19050,212277,190321,-7372,-2.2571221,-8045,-2.463177875
2023-10-21 23:46:50.018,19051,212269,190303,-8119,-2.485834825,-8076,-2.4726693
2023-10-21 23:46:50.018,19052,212241,190295,-6735,-2.062088625,-7969,-2.439908575
2023-10-21 23:46:50.018,19053,212192,190271,-6584,-2.0158562,-7694,-2.35571045
2023-10-21 23:46:50.018,19054,212147,190256,-7867,-2.408678725,-7732,-2.3673451
2023-10-21 23:46:50.018,19055,212134,190234,-7136,-2.1848648,-7811,-2.391532925
2023-10-21 23:46:50.050,19056,212084,190221,-6317,-1.934107475,-7565,-2.316213875
2023-10-21 23:46:50.050,19057,212066,190223,-7749,-2.372550075,-7437,-2.277023475
2023-10-21 23:46:50.050,19058,212035,190210,-7713,-2.361527775,-7538,-2.30794715
2023-10-21 23:46:50.050,19059,212009,190202,-6404,-1.9607447,-7405,-2.267225875
2023-10-21 23:46:50.050,19060,212005,190200,-7191,-2.201704425,-7243,-2.217625525
2023-10-21 23:46:50.050,19061,212007,190184,-7995,-2.447869125,-7378,-2.25895915
2023-10-21 23:46:50.050,19062,212011,190194,-6837,-2.093318475,-7400,-2.265695
2023-10-21 23:46:50.050,19063,212023,190201,-7021,-2.149654675,-7262,-2.22344285
2023-10-21 23:46:50.083,19064,212056,190195,-8609,-2.635860575,-7342,-2.24793685
2023-10-21 23:46:50.083,19065,212079,190219,-7710,-2.36060925,-7430,-2.27488025
2023-10-21 23:46:50.083,19066,212113,190247,-6700,-2.0513725,-7341,-2.247630675
2023-10-21 23:46:50.083,19067,212166,190248,-8142,-2.49287685,-7330,-2.24426275
2023-10-21 23:46:50.083,19068,212201,190264,-8408,-2.5743194,-7372,-2.2571221
2023-10-21 23:46:50.083,19069,212254,190287,-6854,-2.09852345,-7333,-2.245181275
2023-10-21 23:46:50.083,19070,212294,190303,-7696,-2.3563228,-7282,-2.22956635
2023-10-21 23:46:50.083,19071,212332,190326,-8570,-2.62391975,-7301,-2.235383675
2023-10-21 23:46:50.114,19072,212369,190328,-7211,-2.207827925,-7265,-2.224361375
2023-10-21 23:46:50.114,19073,212400,190338,-7022,-2.14996085,-7110,-2.17690425
2023-10-21 23:46:50.114,19074,212436,190365,-8474,-2.59452695,-7193,-2.202316775
2023-10-21 23:46:50.114,19075,212471,190358,-7562,-2.31529535,-7303,-2.235996025
2023-10-21 23:46:50.114,19076,212494,190376,-6751,-2.066987425,-7213,-2.208440275
2023-10-21 23:46:50.114,19077,212524,190383,-8146,-2.49410155,-7198,-2.20384765
2023-10-21 23:46:50.114,19078,212529,190395,-8253,-2.526862275,-7295,-2.233546625
2023-10-21 23:46:50.114,19079,212549,190401,-6897,-2.111688975,-7230,-2.21364525
2023-10-21 23:46:50.114,19080,212569,190386,-7763,-2.376836525,-7202,-2.20507235
2023-10-21 23:46:50.145,19081,212578,190399,-8488,-2.5988134,-7437,-2.277023475
2023-10-21 23:46:50.145,19082,212572,190402,-7145,-2.187620375,-7613,-2.330910275
2023-10-21 23:46:50.145,19083,212588,190399,-7177,-2.197417975,-7497,-2.295393975
2023-10-21 23:46:50.145,19084,212597,190394,-8396,-2.5706453,-7626,-2.33489055
2023-10-21 23:46:50.145,19085,212579,190385,-7539,-2.308253325,-7833,-2.398268775
2023-10-21 23:46:50.145,19086,212606,190391,-6826,-2.08995055,-7691,-2.354791925
2023-10-21 23:46:50.145,19087,212608,190401,-8210,-2.51369675,-7632,-2.3367276
2023-10-21 23:46:50.145,19088,212618,190397,-8252,-2.5265561,-7772,-2.3795921
2023-10-21 23:46:50.176,19089,212603,190383,-6686,-2.04708605,-7690,-2.35448575
2023-10-21 23:46:50.176,19090,212610,190390,-7511,-2.299680425,-7598,-2.32631765
2023-10-21 23:46:50.176,19091,212600,190396,-8414,-2.57615645,-7704,-2.3587722
2023-10-21 23:46:50.176,19092,212628,190384,-7079,-2.167412825,-7714,-2.36183395
2023-10-21 23:46:50.176,19093,212639,190395,-6977,-2.136182975,-7645,-2.340707875
2023-10-21 23:46:50.176,19094,212650,190396,-8258,-2.52839315,-7675,-2.349893125
2023-10-21 23:46:50.208,19095,212670,190406,-7418,-2.27120615,-7712,-2.3612216
2023-10-21 23:46:50.208,19096,212689,190417,-6566,-2.01034505,-7676,-2.3501993
2023-10-21 23:46:50.208,19097,212707,190423,-7876,-2.4114343,-7669,-2.348056075
2023-10-21 23:46:50.208,19098,212720,190426,-7963,-2.438071525,-7723,-2.364589525
2023-10-21 23:46:50.240,19099,212760,190453,-6675,-2.043718125,-7693,-2.355404275
2023-10-21 23:46:50.240,19100,212783,190463,-7442,-2.27855435,-7666,-2.34713755
2023-10-21 23:46:50.240,19101,212814,190461,-8143,-2.493183025,-7690,-2.35448575
2023-10-21 23:46:50.240,19102,212837,190476,-6897,-2.111688975,-7683,-2.352342525
2023-10-21 23:46:50.240,19103,212868,190494,-6786,-2.07770355,-7619,-2.332747325
2023-10-21 23:46:50.240,19104,212890,190501,-8091,-2.477261925,-7668,-2.3477499
2023-10-21 23:46:50.271,19105,212915,190506,-7200,-2.20446,-7706,-2.35938455
2023-10-21 23:46:50.271,19106,212935,190511,-6154,-1.88420095,-7667,-2.347443725
2023-10-21 23:46:50.271,19107,212955,190531,-7624,-2.3342782,-7640,-2.339177
2023-10-21 23:46:50.271,19108,212978,190524,-7845,-2.401942875,-7687,-2.353567225
2023-10-21 23:46:50.271,19109,213002,190524,-6430,-1.96870525,-7651,-2.342544925
2023-10-21 23:46:50.271,19110,213027,190530,-7207,-2.206603225,-7591,-2.324174425
2023-10-21 23:46:50.303,19111,213026,190536,-8079,-2.473587825,-7605,-2.328460875
2023-10-21 23:46:50.303,19112,213061,190539,-6738,-2.06300715,-7593,-2.324786775
2023-10-21 23:46:50.303,19113,213082,190551,-6664,-2.0403502,-7477,-2.289270475
2023-10-21 23:46:50.303,19114,213087,190556,-8034,-2.45980995,-7503,-2.297231025
2023-10-21 23:46:50.303,19115,213118,190570,-7304,-2.2363022,-7557,-2.313764475
2023-10-21 23:46:50.303,19116,213132,190580,-6353,-1.945129775,-7496,-2.2950878
2023-10-21 23:46:50.303,19117,213173,190574,-7582,-2.32141885,-7460,-2.2840655
2023-10-21 23:46:50.334,19118,213188,190600,-7789,-2.384797075,-7501,-2.296618675
2023-10-21 23:46:50.334,19119,213227,190607,-6593,-2.018611775,-7466,-2.28590255
2023-10-21 23:46:50.334,19120,213248,190611,-7285,-2.230484875,-7437,-2.277023475
2023-10-21 23:46:50.334,19121,213260,190608,-8165,-2.499918875,-7438,-2.27732965
2023-10-21 23:46:50.334,19122,213294,190621,-7088,-2.1701684,-7420,-2.2718185
2023-10-21 23:46:50.334,19123,213331,190631,-7092,-2.1713931,-7237,-2.215788475
2023-10-21 23:46:50.334,19124,213353,190651,-8269,-2.531761075,-7210,-2.20752175
2023-10-21 23:46:50.366,19125,213378,190644,-7519,-2.302129825,-7311,-2.238445425
2023-10-21 23:46:50.366,19126,213381,190667,-6766,-2.07158005,-7229,-2.213339075
2023-10-21 23:46:50.366,19127,213420,190654,-8019,-2.455217325,-7217,-2.209664975
2023-10-21 23:46:50.366,19128,213418,190653,-8036,-2.4604223,-7335,-2.245793625
2023-10-21 23:46:50.366,19129,213442,190662,-6416,-1.9644188,-7274,-2.22711695
2023-10-21 23:46:50.366,19130,213447,190667,-7271,-2.226198425,-7210,-2.20752175
2023-10-21 23:46:50.366,19131,213488,190673,-8241,-2.523188175,-7264,-2.2240552
2023-10-21 23:46:50.366,19132,213513,190691,-6818,-2.08750115,-7251,-2.220074925
2023-10-21 23:46:50.366,19133,213555,190696,-6709,-2.054128075,-7195,-2.202929125
2023-10-21 23:46:50.396,19134,213557,190704,-8061,-2.468076675,-7221,-2.210889675
2023-10-21 23:46:50.396,19135,213590,190716,-7259,-2.222524325,-7243,-2.217625525
2023-10-21 23:46:50.396,19136,213601,190735,-6148,-1.8823639,-7238,-2.21609465
2023-10-21 23:46:50.396,19137,213642,190739,-7385,-2.261102375,-7247,-2.218850225
2023-10-21 23:46:50.396,19138,213669,190747,-7529,-2.305191575,-7288,-2.2314034
2023-10-21 23:46:50.396,19139,213687,190750,-6085,-1.863074875,-7315,-2.239670125
2023-10-21 23:46:50.396,19140,213712,190742,-6910,-2.11566925,-7319,-2.240894825
2023-10-21 23:46:50.427,19141,213741,190762,-7657,-2.344381975,-7461,-2.284371675
2023-10-21 23:46:50.427,19142,213756,190781,-6364,-1.9484977,-7539,-2.308253325
2023-10-21 23:46:50.427,19143,213789,190785,-6356,-1.9460483,-7437,-2.277023475
2023-10-21 23:46:50.427,19144,213822,190795,-7713,-2.361527775,-7503,-2.297231025
2023-10-21 23:46:50.427,19145,213843,190810,-7054,-2.15975845,-7561,-2.314989175
2023-10-21 23:46:50.427,19146,213880,190827,-6070,-1.85848225,-7420,-2.2718185
2023-10-21 23:46:50.459,19147,213897,190813,-7261,-2.223136675,-7387,-2.261714725
2023-10-21 23:46:50.459,19148,213918,190835,-7399,-2.265388825,-7488,-2.2926384
2023-10-21 23:46:50.459,19149,213958,190837,-6132,-1.8774651,-7449,-2.280697575
2023-10-21 23:46:50.459,19150,213968,190858,-7094,-2.17200545,-7313,-2.239057775
2023-10-21 23:46:50.459,19151,213985,190875,-8218,-2.51614615,-7386,-2.26140855
2023-10-21 23:46:50.459,19152,214010,190876,-7216,-2.2093588,-7373,-2.257428275
2023-10-21 23:46:50.459,19153,214053,190878,-7469,-2.286821075,-7169,-2.194968575
2023-10-21 23:46:50.489,19154,214070,190888,-8868,-2.7151599,-7140,-2.1860895
2023-10-21 23:46:50.489,19155,214108,190897,-7600,-2.32693,-7192,-2.2020106
2023-10-21 23:46:50.489,19156,214142,190908,-6056,-1.8541958,-7024,-2.1505732
2023-10-21 23:46:50.489,19157,214154,190920,-6586,-2.01646855,-6924,-2.1199557
2023-10-21 23:46:50.489,19158,214181,190924,-6461,-1.978196675,-7027,-2.151491725
2023-10-21 23:46:50.489,19159,214203,190941,-5116,-1.5663913,-6942,-2.12546685
2023-10-21 23:46:50.489,19160,214233,190943,-6158,-1.88542565,-6845,-2.095767875
2023-10-21 23:46:50.520,19161,214256,190965,-7174,-2.19649945,-6995,-2.141694125
2023-10-21 23:46:50.520,19162,214295,190974,-5820,-1.7819385,-7023,-2.150267025
2023-10-21 23:46:50.520,19163,214315,190972,-5545,-1.697740375,-6924,-2.1199557
2023-10-21 23:46:50.520,19164,214345,190986,-6905,-2.114138375,-6924,-2.1199557
2023-10-21 23:46:50.520,19165,214359,190985,-6360,-1.947273,-6938,-2.12424215
2023-10-21 23:46:50.551,19166,214388,190981,-5527,-1.692229225,-6905,-2.114138375
2023-10-21 23:46:50.551,19167,214420,190996,-6833,-2.092093775,-6907,-2.114750725
2023-10-21 23:46:50.551,19168,214450,191021,-6971,-2.134345925,-7096,-2.1726178
2023-10-21 23:46:50.551,19169,214461,191027,-5669,-1.735706075,-7288,-2.2314034
2023-10-21 23:46:50.551,19170,214487,191037,-6299,-1.928596325,-7451,-2.281309925
2023-10-21 23:46:50.551,19171,214546,191053,-7041,-2.155778175,-7854,-2.40469845
2023-10-21 23:46:50.551,19172,214584,191065,-5979,-1.830620325,-7899,-2.418476325
2023-10-21 23:46:50.551,19173,214597,191088,-5707,-1.747340725,-7439,-2.277635825
2023-10-21 23:46:50.582,19174,214642,191101,-6979,-2.136795325,-7054,-2.15975845
2023-10-21 23:46:50.582,19175,214687,191122,-6594,-2.01891795,-6688,-2.0476984
2023-10-21 23:46:50.582,19176,214703,191140,-5673,-1.736930775,-6115,-1.872260125
2023-10-21 23:46:50.582,19177,214762,191145,-7070,-2.16465725,-5880,-1.800309
2023-10-21 23:46:50.582,19178,214807,191174,-7473,-2.288045775,-6058,-1.85480815
2023-10-21 23:46:50.582,19179,214844,191192,-6270,-1.91971725,-6055,-1.853889625
2023-10-21 23:46:50.613,19180,214871,191184,-6958,-2.13036565,-6040,-1.849297
2023-10-21 23:46:50.613,19181,214911,191216,-7758,-2.37530565,-6353,-1.945129775
2023-10-21 23:46:50.613,19182,214938,191216,-6447,-1.973910225,-6488,-1.9864634
2023-10-21 23:46:50.613,19183,215000,191232,-6220,-1.9044085,-6291,-1.926146925
2023-10-21 23:46:50.613,19184,215019,191242,-7599,-2.326623825,-6288,-1.9252284
2023-10-21 23:46:50.645,19185,215027,191259,-6889,-2.109239575,-6349,-1.943905075
2023-10-21 23:46:50.645,19186,215059,191267,-5972,-1.8284771,-6237,-1.909613475
2023-10-21 23:46:50.645,19187,215087,191262,-7016,-2.1481238,-6287,-1.924922225
2023-10-21 23:46:50.645,19188,215119,191283,-7217,-2.209664975,-6482,-1.98462635
2023-10-21 23:46:50.645,19189,215138,191290,-5990,-1.83398825,-6444,-1.9729917
2023-10-21 23:46:50.645,19190,215138,191282,-6704,-2.0525972,-6304,-1.9301272
2023-10-21 23:46:50.675,19191,215143,191295,-7615,-2.331522625,-6361,-1.947579175
2023-10-21 23:46:50.675,19192,215143,191279,-6465,-1.979421375,-6363,-1.948191525
2023-10-21 23:46:50.675,19193,215121,191257,-6179,-1.891855325,-6337,-1.940230975
2023-10-21 23:46:50.675,19194,215089,191237,-7368,-2.2558974,-6394,-1.95768295
2023-10-21 23:46:50.675,19195,215006,191197,-6664,-2.0403502,-6741,-2.063925675
2023-10-21 23:46:50.675,19196,214903,191144,-5712,-1.7488716,-6807,-2.084133225
2023-10-21 23:46:50.707,19197,214777,191093,-6845,-2.095767875,-6863,-2.101279025
2023-10-21 23:46:50.707,19198,214643,191034,-7060,-2.1615955,-7047,-2.157615225
2023-10-21 23:46:50.707,19199,214493,190982,-5874,-1.79847195,-6944,-2.1260792
2023-10-21 23:46:50.707,19200,214341,190897,-6642,-2.03361435,-6782,-2.07647885
2023-10-21 23:46:50.738,19201,214169,190815,-7399,-2.265388825,-6916,-2.1175063
2023-10-21 23:46:50.738,19202,213994,190755,-6117,-1.872872475,-6928,-2.1211804
2023-10-21 23:46:50.738,19203,213825,190674,-5879,-1.800002825,-6718,-2.05688365
2023-10-21 23:46:50.738,19204,213645,190607,-7265,-2.224361375,-6756,-2.0685183
2023-10-21 23:46:50.738,19205,213464,190541,-6650,-2.03606375,-6854,-2.09852345
2023-10-21 23:46:50.738,19206,213274,190456,-5645,-1.728357875,-6769,-2.072498575
2023-10-21 23:46:50.769,19207,213114,190376,-6699,-2.051066325,-6747,-2.065762725
2023-10-21 23:46:50.769,19208,212942,190315,-6736,-2.0623948,-6864,-2.1015852
2023-10-21 23:46:50.769,19209,212790,190261,-5267,-1.612623725,-6816,-2.0868888
2023-10-21 23:46:50.769,19210,212647,190212,-5764,-1.7647927,-6771,-2.073110925
2023-10-21 23:46:50.769,19211,212516,190157,-6487,-1.986157225,-6786,-2.07770355
2023-10-21 23:46:50.769,19212,212431,190108,-5138,-1.57312715,-6770,-2.07280475
2023-10-21 23:46:50.800,19213,212321,190084,-4787,-1.465659725,-6733,-2.061476275
2023-10-21 23:46:50.800,19214,212258,190057,-6164,-1.8872627,-6667,-2.041268725
2023-10-21 23:46:50.800,19215,212209,190029,-5502,-1.68457485,-6675,-2.043718125
2023-10-21 23:46:50.800,19216,212159,190022,-4472,-1.3692146,-6574,-2.01279445
2023-10-21 23:46:50.800,19217,212142,190003,-5732,-1.7549951,-6570,-2.01156975
2023-10-21 23:46:50.800,19218,212116,190012,-5936,-1.8174548,-6706,-2.05320955
2023-10-21 23:46:50.800,19219,212113,189999,-4682,-1.43351135,-6654,-2.03728845
2023-10-21 23:46:50.832,19220,212111,189980,-5158,-1.57925065,-6571,-2.011875925
2023-10-21 23:46:50.832,19221,212125,190001,-5979,-1.830620325,-6609,-2.023510575
2023-10-21 23:46:50.832,19222,212124,190001,-4896,-1.4990328,-6593,-2.018611775
2023-10-21 23:46:50.832,19223,212130,190007,-4790,-1.46657825,-6548,-2.0048339
2023-10-21 23:46:50.832,19224,212146,190015,-6023,-1.844092025,-6497,-1.989218975
2023-10-21 23:46:50.832,19225,212175,190013,-5364,-1.6423227,-6503,-1.991056025
2023-10-21 23:46:50.832,19226,212204,190014,-4344,-1.3300242,-6310,-1.93196425
2023-10-21 23:46:50.862,19227,212217,190028,-5560,-1.702333,-6095,-1.866136625
2023-10-21 23:46:50.862,19228,212202,190037,-5748,-1.7598939,-6060,-1.8554205
2023-10-21 23:46:50.862,19229,212229,190039,-4742,-1.45188185,-5777,-1.768772975
2023-10-21 23:46:50.862,19230,212241,190048,-5532,-1.6937601,-5444,-1.6668167
2023-10-21 23:46:50.862,19231,212259,190035,-6262,-1.91726785,-5502,-1.68457485
2023-10-21 23:46:50.862,19232,212250,190053,-5025,-1.538529375,-5510,-1.68702425
2023-10-21 23:46:50.893,19233,212263,190049,-4841,-1.482193175,-5297,-1.621808975
2023-10-21 23:46:50.893,19234,212257,190047,-6088,-1.8639934,-5344,-1.6361992
2023-10-21 23:46:50.893,19235,212251,190055,-5527,-1.692229225,-5484,-1.6790637
2023-10-21 23:46:50.893,19236,212279,190054,-4533,-1.387891275,-5346,-1.63681155
2023-10-21 23:46:50.893,19237,212260,190047,-5719,-1.751014825,-5290,-1.61966575
2023-10-21 23:46:50.893,19238,212280,190047,-5846,-1.78989905,-5414,-1.65763145
2023-10-21 23:46:50.893,19239,212298,190059,-4507,-1.379930725,-5371,-1.644465925
2023-10-21 23:46:50.924,19240,212319,190056,-5305,-1.624258375,-5352,-1.6386486
2023-10-21 23:46:50.924,19241,212335,190063,-6173,-1.890018275,-5348,-1.6374239
2023-10-21 23:46:50.924,19242,212365,190074,-5016,-1.5357738,-5338,-1.63436215
2023-10-21 23:46:50.924,19243,212402,190113,-4587,-1.404424725,-5306,-1.62456455
2023-10-21 23:46:50.924,19244,212450,190127,-5938,-1.81806715,-5300,-1.6227275
2023-10-21 23:46:50.924,19245,212527,190149,-5504,-1.6851872,-5303,-1.623646025
2023-10-21 23:46:50.955,19246,212567,190171,-4677,-1.431980475,-5286,-1.61844105
2023-10-21 23:46:50.955,19247,212621,190189,-5979,-1.830620325,-5287,-1.618747225
2023-10-21 23:46:50.955,19248,212659,190215,-6269,-1.919411075,-5362,-1.64171035
2023-10-21 23:46:50.955,19249,212722,190236,-4896,-1.4990328,-5373,-1.645078275
2023-10-21 23:46:50.955,19250,212779,190248,-5501,-1.684268675,-5338,-1.63436215
2023-10-21 23:46:50.985,19251,212802,190264,-6476,-1.9827893,-5425,-1.660999375
2023-10-21 23:46:50.985,19252,212842,190286,-5444,-1.6668167,-5464,-1.6729402
2023-10-21 23:46:50.985,19253,212877,190284,-5178,-1.58537415,-5334,-1.63313745
2023-10-21 23:46:50.985,19254,212897,190286,-6317,-1.934107475,-5354,-1.63926095
2023-10-21 23:46:50.985,19255,212926,190304,-5832,-1.7856126,-5402,-1.65395735
2023-10-21 23:46:50.985,19256,212919,190300,-4919,-1.506074825,-5354,-1.63926095
2023-10-21 23:46:50.985,19257,212939,190318,-6339,-1.940843325,-5358,-1.64048565
2023-10-21 23:46:51.018,19258,212941,190311,-6588,-2.0170809,-5438,-1.66497965
2023-10-21 23:46:51.018,19259,212956,190314,-5275,-1.615073125,-5400,-1.653345
2023-10-21 23:46:51.018,19260,212964,190306,-5920,-1.812556,-5312,-1.6264016
2023-10-21 23:46:51.018,19261,212972,190300,-6861,-2.100666675,-5339,-1.634668325
2023-10-21 23:46:51.018,19262,212960,190304,-5531,-1.693453925,-5353,-1.638954775
2023-10-21 23:46:51.018,19263,212963,190295,-5358,-1.64048565,-5323,-1.629769525
2023-10-21 23:46:51.048,19264,212954,190293,-6538,-2.00177215,-5338,-1.63436215
2023-10-21 23:46:51.048,19265,212959,190308,-5944,-1.8199042,-5531,-1.693453925
2023-10-21 23:46:51.048,19266,212945,190303,-4956,-1.5174033,-5500,-1.6839625
2023-10-21 23:46:51.048,19267,212965,190309,-6044,-1.8505217,-5503,-1.684881025
2023-10-21 23:46:51.050,19268,212972,190296,-6318,-1.93441365,-5699,-1.744891325
2023-10-21 23:46:51.050,19269,212988,190310,-5033,-1.540978775,-5723,-1.752239525
2023-10-21 23:46:51.050,19270,212984,190305,-5827,-1.784081725,-5621,-1.721009675
2023-10-21 23:46:51.050,19271,213000,190312,-6747,-2.065762725,-5701,-1.745503675
2023-10-21 23:46:51.080,19272,213018,190340,-5584,-1.7096812,-5715,-1.749790125
2023-10-21 23:46:51.080,19273,213053,190337,-5483,-1.678757525,-5624,-1.7219282
2023-10-21 23:46:51.080,19274,213068,190341,-6569,-2.011263575,-5698,-1.74458515
2023-10-21 23:46:51.080,19275,213105,190351,-6083,-1.862462525,-5854,-1.79234845
2023-10-21 23:46:51.080,19276,213131,190367,-5132,-1.5712901,-5845,-1.789592875
2023-10-21 23:46:51.080,19277,213152,190370,-6283,-1.923697525,-5856,-1.7929608
2023-10-21 23:46:51.080,19278,213176,190387,-6535,-2.000853625,-6015,-1.841642625
2023-10-21 23:46:51.111,19279,213214,190392,-5136,-1.5725148,-5992,-1.8346006
2023-10-21 23:46:51.111,19280,213253,190409,-5739,-1.757138325,-5881,-1.800615175
2023-10-21 23:46:51.111,19281,213299,190413,-6601,-2.021061175,-5951,-1.822047425
2023-10-21 23:46:51.111,19282,213318,190436,-5470,-1.67477725,-5943,-1.819598025
2023-10-21 23:46:51.111,19283,213352,190446,-5264,-1.6117052,-5792,-1.7733656
2023-10-21 23:46:51.142,19284,213390,190458,-6579,-2.014325325,-5822,-1.78255085
2023-10-21 23:46:51.142,19285,213428,190483,-6153,-1.883894775,-5889,-1.803064575
2023-10-21 23:46:51.142,19286,213442,190485,-5238,-1.60374465,-5806,-1.77765205
2023-10-21 23:46:51.142,19287,213478,190495,-6454,-1.97605345,-5806,-1.77765205
2023-10-21 23:46:51.142,19288,213511,190516,-6671,-2.042493425,-5946,-1.82051655
2023-10-21 23:46:51.142,19289,213539,190534,-5393,-1.651201775,-5911,-1.809800425
2023-10-21 23:46:51.142,19290,213580,190529,-5835,-1.786531125,-5854,-1.79234845
2023-10-21 23:46:51.174,19291,213604,190541,-6711,-2.054740425,-5920,-1.812556
2023-10-21 23:46:51.174,19292,213621,190540,-5687,-1.741217225,-5960,-1.824803
2023-10-21 23:46:51.174,19293,213648,190554,-5264,-1.6117052,-5872,-1.7978596
2023-10-21 23:46:51.174,19294,213694,190561,-6594,-2.01891795,-5900,-1.8064325
2023-10-21 23:46:51.174,19295,213711,190575,-6129,-1.876546575,-5950,-1.82174125
2023-10-21 23:46:51.174,19296,213723,190590,-5019,-1.536692325,-5905,-1.807963375
2023-10-21 23:46:51.205,19297,213759,190580,-6125,-1.875321875,-5918,-1.81194365
2023-10-21 23:46:51.205,19298,213785,190596,-6345,-1.942680375,-5946,-1.82051655
2023-10-21 23:46:51.205,19299,213807,190598,-5018,-1.53638615,-5938,-1.81806715
2023-10-21 23:46:51.205,19300,213815,190601,-5658,-1.73233815,-5917,-1.811637475
2023-10-21 23:46:51.205,19301,213844,190624,-6482,-1.98462635,-5922,-1.81316835
2023-10-21 23:46:51.236,19302,213874,190649,-5394,-1.65150795,-5919,-1.812249825
2023-10-21 23:46:51.236,19303,213898,190640,-5006,-1.53271205,-5900,-1.8064325
2023-10-21 23:46:51.236,19304,213906,190647,-6268,-1.9191049,-5911,-1.809800425
2023-10-21 23:46:51.236,19305,213941,190659,-5665,-1.734481375,-6035,-1.847766125
2023-10-21 23:46:51.236,19306,213961,190651,-4621,-1.414834675,-5999,-1.836743825
2023-10-21 23:46:51.236,19307,213972,190668,-5788,-1.7721409,-5975,-1.829395625
2023-10-21 23:46:51.236,19308,214012,190687,-6046,-1.85113405,-6043,-1.850215525
2023-10-21 23:46:51.267,19309,214034,190703,-4624,-1.4157532,-6007,-1.839193225
2023-10-21 23:46:51.267,19310,214060,190706,-5107,-1.563635725,-5916,-1.8113313
2023-10-21 23:46:51.267,19311,214097,190711,-5997,-1.836131475,-5992,-1.8346006
2023-10-21 23:46:51.267,19312,214111,190716,-4989,-1.527507075,-6011,-1.840417925
2023-10-21 23:46:51.267,19313,214143,190739,-4750,-1.45433125,-5931,-1.815923925
2023-10-21 23:46:51.267,19314,214182,190742,-6104,-1.8688922,-5932,-1.8162301
2023-10-21 23:46:51.297,19315,214202,190766,-5611,-1.717947925,-5969,-1.827558575
2023-10-21 23:46:51.297,19316,214222,190772,-4465,-1.367071375,-5885,-1.801839875
2023-10-21 23:46:51.297,19317,214266,190765,-5607,-1.716723225,-5808,-1.7782644
2023-10-21 23:46:51.297,19318,214290,190787,-5972,-1.8284771,-5870,-1.79724725
2023-10-21 23:46:51.297,19319,214315,190792,-4736,-1.4500448,-5840,-1.788062
2023-10-21 23:46:51.330,19320,214351,190815,-5158,-1.57925065,-5735,-1.755913625
2023-10-21 23:46:51.330,19321,214372,190825,-6127,-1.875934225,-5757,-1.762649475
2023-10-21 23:46:51.330,19322,214386,190824,-5283,-1.617522525,-5750,-1.76050625
2023-10-21 23:46:51.330,19323,214411,190834,-5036,-1.5418973,-5602,-1.71519235
2023-10-21 23:46:51.330,19324,214442,190849,-6505,-1.991668375,-5553,-1.700189775
2023-10-21 23:46:51.330,19325,214471,190845,-6496,-1.9889128,-5603,-1.715498525
2023-10-21 23:46:51.360,19326,214478,190868,-5719,-1.751014825,-5467,-1.673858725
2023-10-21 23:46:51.360,19327,214511,190872,-6907,-2.114750725,-5346,-1.63681155
2023-10-21 23:46:51.360,19328,214552,190883,-7152,-2.1897636,-5443,-1.666510525
2023-10-21 23:46:51.360,19329,214592,190889,-5487,-1.679982225,-5404,-1.6545697
2023-10-21 23:46:51.360,19330,214590,190902,-5456,-1.6704908,-5307,-1.624870725
2023-10-21 23:46:51.360,19331,214627,190907,-5854,-1.79234845,-5403,-1.654263525
2023-10-21 23:46:51.392,19332,214646,190914,-4635,-1.419121125,-5426,-1.66130555
2023-10-21 23:46:51.392,19333,214655,190912,-4446,-1.36125405,-5369,-1.643853575
2023-10-21 23:46:51.392,19334,214695,190929,-5747,-1.759587725,-5358,-1.64048565
2023-10-21 23:46:51.392,19335,214708,190931,-5334,-1.63313745,-5375,-1.645690625
2023-10-21 23:46:51.392,19336,214725,190929,-4443,-1.360335525,-5347,-1.637117725
2023-10-21 23:46:51.392,19337,214755,190930,-5461,-1.672021675,-5342,-1.63558685
2023-10-21 23:46:51.392,19338,214781,190944,-5719,-1.751014825,-5361,-1.641404175
2023-10-21 23:46:51.422,19339,214786,190954,-4354,-1.33308595,-5365,-1.642628875
2023-10-21 23:46:51.422,19340,214785,190976,-4925,-1.507911875,-5372,-1.6447721
2023-10-21 23:46:51.422,19341,214834,190977,-5819,-1.781632325,-5535,-1.694678625
2023-10-21 23:46:51.422,19342,214835,190973,-4704,-1.4402472,-5940,-1.8186795
2023-10-21 23:46:51.422,19343,214871,190984,-4468,-1.3679899,-6068,-1.8578699
2023-10-21 23:46:51.422,19344,214889,190980,-5709,-1.747953075,-6337,-1.940230975
2023-10-21 23:46:51.422,19345,214899,190997,-5232,-1.6019076,-6598,-2.02014265
2023-10-21 23:46:51.454,19346,214926,190999,-4372,-1.3385971,-6404,-1.9607447
2023-10-21 23:46:51.454,19347,214943,191004,-5450,-1.66865375,-6094,-1.86583045
2023-10-21 23:46:51.454,19348,214972,191029,-5717,-1.750402475,-5878,-1.79969665
2023-10-21 23:46:51.454,19349,215002,191029,-4487,-1.373807225,-5445,-1.667122875
2023-10-21 23:46:51.454,19350,215029,191031,-4905,-1.501788375,-5016,-1.5357738
2023-10-21 23:46:51.454,19351,215064,191051,-5874,-1.79847195,-4994,-1.52903795
2023-10-21 23:46:51.485,19352,215093,191055,-4729,-1.447901575,-5024,-1.5382232
2023-10-21 23:46:51.485,19353,215127,191078,-4345,-1.330330375,-4937,-1.511585975
2023-10-21 23:46:51.485,19354,215181,191091,-5687,-1.741217225,-5125,-1.569146875
2023-10-21 23:46:51.485,19355,215200,191109,-5419,-1.659162325,-5359,-1.640791825
2023-10-21 23:46:51.485,19356,215223,191139,-4327,-1.324819225,-5217,-1.597314975
2023-10-21 23:46:51.485,19357,215270,191141,-5249,-1.607112575,-5093,-1.559349275
2023-10-21 23:46:51.485,19358,215300,191157,-5523,-1.691004525,-5157,-1.578944475
2023-10-21 23:46:51.516,19359,215340,191174,-4236,-1.2969573,-5054,-1.54740845
2023-10-21 23:46:51.516,19360,215344,191179,-4990,-1.52781325,-4970,-1.52168975
2023-10-21 23:46:51.516,19361,215377,191184,-6077,-1.860625475,-5068,-1.5516949
2023-10-21 23:46:51.516,19362,215427,191197,-5174,-1.58414945,-5136,-1.5725148
2023-10-21 23:46:51.516,19363,215441,191170,-4926,-1.50821805,-5081,-1.555675175
2023-10-21 23:46:51.516,19364,215455,191201,-6187,-1.894304725,-5114,-1.56577895
2023-10-21 23:46:51.549,19365,215466,191206,-5715,-1.749790125,-5164,-1.5810877
2023-10-21 23:46:51.549,19366,215454,191212,-4589,-1.405037075,-5098,-1.56088015
2023-10-21 23:46:51.549,19367,215449,191184,-5495,-1.682431625,-5081,-1.555675175
2023-10-21 23:46:51.549,19368,215396,191154,-5779,-1.769385325,-5102,-1.56210485
2023-10-21 23:46:51.549,19369,215333,191130,-4548,-1.3924839,-5099,-1.561186325
2023-10-21 23:46:51.579,19370,215252,191096,-5094,-1.55965545,-5068,-1.5516949
2023-10-21 23:46:51.579,19371,215179,191050,-6011,-1.840417925,-5108,-1.5639419
2023-10-21 23:46:51.579,19372,215053,191001,-4990,-1.52781325,-5116,-1.5663913
2023-10-21 23:46:51.579,19373,214914,190953,-4642,-1.42126435,-5097,-1.560573975
2023-10-21 23:46:51.579,19374,214797,190907,-5976,-1.8297018,-5092,-1.5590431
2023-10-21 23:46:51.579,19375,214669,190839,-5625,-1.722234375,-5093,-1.559349275
2023-10-21 23:46:51.579,19376,214527,190777,-4609,-1.411160575,-5070,-1.55230725
2023-10-21 23:46:51.610,19377,214396,190724,-5744,-1.7586692,-5061,-1.549551675
2023-10-21 23:46:51.610,19378,214245,190649,-6012,-1.8407241,-5085,-1.556899875
2023-10-21 23:46:51.610,19379,214126,190620,-4906,-1.50209455,-5129,-1.570371575
2023-10-21 23:46:51.610,19380,213995,190546,-5392,-1.6508956,-5143,-1.574658025
2023-10-21 23:46:51.610,19381,213880,190497,-6145,-1.881445375,-5362,-1.64171035
2023-10-21 23:46:51.610,19382,213759,190456,-5161,-1.580169175,-5552,-1.6998836
2023-10-21 23:46:51.641,19383,213658,190421,-4766,-1.45923005,-5424,-1.6606932
2023-10-21 23:46:51.641,19384,213567,190376,-5973,-1.828783275,-5391,-1.650589425
2023-10-21 23:46:51.641,19385,213481,190352,-5432,-1.6631426,-5406,-1.65518205
2023-10-21 23:46:51.641,19386,213425,190334,-4326,-1.32451305,-5219,-1.597927325
2023-10-21 23:46:51.641,19387,213373,190316,-5404,-1.6545697,-5150,-1.57680125
2023-10-21 23:46:51.672,19388,213332,190296,-5768,-1.7660174,-5302,-1.62333985
2023-10-21 23:46:51.672,19389,213305,190272,-4365,-1.336453875,-5300,-1.6227275
2023-10-21 23:46:51.672,19390,213273,190270,-4744,-1.4524942,-5235,-1.602826125
2023-10-21 23:46:51.672,19391,213249,190252,-5702,-1.74580985,-5366,-1.64293505
2023-10-21 23:46:51.672,19392,213236,190242,-4600,-1.408405,-5427,-1.661611725
2023-10-21 23:46:51.672,19393,213239,190256,-4178,-1.27919915,-5312,-1.6264016
2023-10-21 23:46:51.703,19394,213231,190246,-5368,-1.6435474,-5318,-1.62823865
2023-10-21 23:46:51.703,19395,213234,190242,-4973,-1.522608275,-5398,-1.65273265
2023-10-21 23:46:51.703,19396,213238,190243,-3973,-1.216433275,-5372,-1.6447721
2023-10-21 23:46:51.703,19397,213238,190243,-4929,-1.509136575,-5388,-1.6496709
2023-10-21 23:46:51.703,19398,213256,190241,-5157,-1.578944475,-5483,-1.678757525
2023-10-21 23:46:51.703,19399,213256,190242,-3987,-1.220719725,-5464,-1.6729402
2023-10-21 23:46:51.735,19400,213247,190251,-4440,-1.359417,-5391,-1.650589425
2023-10-21 23:46:51.735,19401,213254,190243,-5341,-1.635280675,-5441,-1.665898175
2023-10-21 23:46:51.735,19402,213246,190237,-4325,-1.324206875,-5442,-1.66620435
2023-10-21 23:46:51.735,19403,213252,190227,-4037,-1.236028475,-5296,-1.6215028
2023-10-21 23:46:51.735,19404,213217,190213,-5194,-1.59027295,-5253,-1.608337275
2023-10-21 23:46:51.735,19405,213225,190210,-4840,-1.481887,-5322,-1.62946335
2023-10-21 23:46:51.735,19406,213188,190201,-3818,-1.16897615,-5174,-1.58414945
2023-10-21 23:46:51.766,19407,213190,190197,-4688,-1.4353484,-5031,-1.540366425
2023-10-21 23:46:51.766,19408,213174,190194,-4683,-1.433817525,-5107,-1.563635725
2023-10-21 23:46:51.766,19409,213150,190170,-3367,-1.030891225,-5028,-1.5394479
2023-10-21 23:46:51.766,19410,213148,190187,-4187,-1.281954725,-4849,-1.484642575
2023-10-21 23:46:51.766,19411,213144,190178,-5127,-1.569759225,-4900,-1.5002575
2023-10-21 23:46:51.766,19412,213113,190154,-4140,-1.2675645,-4925,-1.507911875
2023-10-21 23:46:51.766,19413,213106,190156,-3856,-1.1806108,-4772,-1.4610671
2023-10-21 23:46:51.796,19414,213136,190165,-4968,-1.5210774,-4745,-1.452800375
2023-10-21 23:46:51.796,19415,213133,190165,-4529,-1.386666575,-4803,-1.470558525
2023-10-21 23:46:51.796,19416,213159,190168,-3552,-1.0875336,-4698,-1.43841015
2023-10-21 23:46:51.796,19417,213165,190176,-4452,-1.3630911,-4640,-1.420652
2023-10-21 23:46:51.796,19418,213214,190192,-4936,-1.5112798,-4733,-1.449126275
2023-10-21 23:46:51.796,19419,213240,190214,-3855,-1.180304625,-4706,-1.44085955
2023-10-21 23:46:51.828,19420,213266,190222,-4162,-1.27430035,-4651,-1.424019925
2023-10-21 23:46:51.828,19421,213309,190236,-5090,-1.55843075,-4669,-1.429531075
2023-10-21 23:46:51.828,19422,213344,190258,-4246,-1.30001905,-4665,-1.428306375
2023-10-21 23:46:51.828,19423,213374,190256,-3807,-1.165608225,-4632,-1.4182026
2023-10-21 23:46:51.828,19424,213402,190264,-4948,-1.5149539,-4616,-1.4133038
2023-10-21 23:46:51.828,19425,213426,190271,-4548,-1.3924839,-4599,-1.408098825
2023-10-21 23:46:51.828,19426,213450,190283,-3555,-1.088452125,-4403,-1.348088525
2023-10-21 23:46:51.859,19427,213479,190290,-4478,-1.37105165,-4261,-1.304611675
2023-10-21 23:46:51.859,19428,213496,190297,-4799,-1.469333825,-4394,-1.34533295
2023-10-21 23:46:51.859,19429,213498,190305,-3622,-1.10896585,-4374,-1.33920945
2023-10-21 23:46:51.859,19430,213529,190317,-4007,-1.226843225,-4290,-1.31349075
2023-10-21 23:46:51.859,19431,213535,190311,-5099,-1.561186325,-4407,-1.349313225
2023-10-21 23:46:51.859,19432,213560,190297,-4285,-1.311959875,-4464,-1.3667652
2023-10-21 23:46:51.890,19433,213553,190317,-3875,-1.186428125,-4353,-1.332779775
2023-10-21 23:46:51.890,19434,213560,190328,-4910,-1.50331925,-4339,-1.328493325
2023-10-21 23:46:51.890,19435,213583,190319,-4616,-1.4133038,-4350,-1.33186125
2023-10-21 23:46:51.890,19436,213574,190323,-3699,-1.132541325,-4320,-1.322676
2023-10-21 23:46:51.890,19437,213594,190320,-4586,-1.40411855,-4321,-1.322982175
2023-10-21 23:46:51.921,19438,213584,190316,-4890,-1.49719575,-4348,-1.3312489
2023-10-21 23:46:51.921,19439,213575,190305,-3823,-1.170507025,-4361,-1.335229175
2023-10-21 23:46:51.921,19440,213592,190321,-4213,-1.289915275,-4365,-1.336453875
2023-10-21 23:46:51.921,19441,213586,190319,-5099,-1.561186325,-4388,-1.3434959
2023-10-21 23:46:51.921,19442,213611,190319,-4191,-1.283179425,-4395,-1.345639125
2023-10-21 23:46:51.921,19443,213618,190314,-3987,-1.220719725,-4369,-1.337678575
2023-10-21 23:46:51.921,19444,213632,190338,-5219,-1.597927325,-4346,-1.33063655
2023-10-21 23:46:51.952,19445,213660,190334,-4759,-1.457086825,-4360,-1.334923
2023-10-21 23:46:51.952,19446,213691,190346,-3649,-1.117232575,-4326,-1.32451305
2023-10-21 23:46:51.952,19447,213707,190362,-4690,-1.43596075,-4289,-1.313184575
2023-10-21 23:46:51.952,19448,213725,190358,-5041,-1.543428175,-4357,-1.334004475
2023-10-21 23:46:51.952,19449,213742,190377,-3834,-1.17387495,-4357,-1.334004475
2023-10-21 23:46:51.952,19450,213792,190390,-4142,-1.26817685,-4327,-1.324819225
2023-10-21 23:46:51.984,19451,213816,190401,-5000,-1.530875,-4340,-1.3287995
2023-10-21 23:46:51.984,19452,213849,190422,-4191,-1.283179425,-4366,-1.33676005
2023-10-21 23:46:51.984,19453,213874,190442,-3861,-1.182141675,-4329,-1.325431575
2023-10-21 23:46:51.984,19454,213908,190438,-5069,-1.552001075,-4342,-1.32941185
2023-10-21 23:46:51.984,19455,213939,190442,-4639,-1.420345825,-4366,-1.33676005
2023-10-21 23:46:52.016,19456,213972,190475,-3640,-1.114477,-4365,-1.336453875
2023-10-21 23:46:52.016,19457,214001,190469,-4704,-1.4402472,-4369,-1.337678575
2023-10-21 23:46:52.016,19458,214037,190495,-4959,-1.518321825,-4395,-1.345639125
2023-10-21 23:46:52.016,19459,214079,190500,-3817,-1.168669975,-4403,-1.348088525
2023-10-21 23:46:52.016,19460,214109,190507,-4299,-1.316246325,-4402,-1.34778235
2023-10-21 23:46:52.016,19461,214141,190516,-5327,-1.630994225,-4429,-1.356049075
2023-10-21 23:46:52.047,19462,214160,190533,-4470,-1.36860225,-4472,-1.3692146
2023-10-21 23:46:52.047,19463,214183,190533,-4033,-1.234803775,-4442,-1.36002935
2023-10-21 23:46:52.047,19464,214213,190546,-5065,-1.550776375,-4448,-1.3618664
2023-10-21 23:46:52.047,19465,214235,190554,-4798,-1.46902765,-4482,-1.37227635
2023-10-21 23:46:52.047,19466,214271,190577,-3935,-1.204798625,-4459,-1.365234325
2023-10-21 23:46:52.047,19467,214279,190579,-4867,-1.490153725,-4439,-1.359110825
2023-10-21 23:46:52.079,19468,214302,190595,-5168,-1.5823124,-4475,-1.370133125
2023-10-21 23:46:52.079,19469,214355,190605,-3963,-1.213371525,-4470,-1.36860225
2023-10-21 23:46:52.079,19470,214362,190603,-4483,-1.372582525,-4434,-1.35757995
2023-10-21 23:46:52.079,19471,214398,190614,-5630,-1.72376525,-4460,-1.3655405
2023-10-21 23:46:52.079,19472,214424,190623,-4878,-1.49352165,-4455,-1.364009625
2023-10-21 23:46:52.079,19473,214437,190643,-4407,-1.349313225,-4428,-1.3557429
2023-10-21 23:46:52.079,19474,214463,190637,-5648,-1.7292764,-4425,-1.354824375
2023-10-21 23:46:52.108,19475,214489,190670,-5364,-1.6423227,-4434,-1.35757995
2023-10-21 23:46:52.108,19476,214515,190668,-4221,-1.292364675,-4418,-1.35268115
2023-10-21 23:46:52.108,19477,214552,190680,-5415,-1.657937625,-4412,-1.3508441
2023-10-21 23:46:52.108,19478,214554,190689,-5712,-1.7488716,-4437,-1.358498475
2023-10-21 23:46:52.108,19479,214588,190685,-4423,-1.354212025,-4459,-1.365234325
2023-10-21 23:46:52.108,19480,214594,190685,-4932,-1.5100551,-4464,-1.3667652
2023-10-21 23:46:52.108,19481,214611,190705,-5925,-1.814086875,-4494,-1.37595045
2023-10-21 23:46:52.140,19482,214640,190702,-5010,-1.53393675,-4559,-1.395851825
2023-10-21 23:46:52.140,19483,214653,190715,-4468,-1.3679899,-4531,-1.387278925
2023-10-21 23:46:52.140,19484,214668,190706,-5542,-1.69682185,-4546,-1.39187155
2023-10-21 23:46:52.140,19485,214684,190721,-5193,-1.589966775,-4576,-1.4010568
2023-10-21 23:46:52.140,19486,214685,190719,-4104,-1.2565422,-4569,-1.398913575
2023-10-21 23:46:52.140,19487,214727,190722,-5062,-1.54985785,-4581,-1.402587675
2023-10-21 23:46:52.170,19488,214739,190751,-5480,-1.677839,-4624,-1.4157532
2023-10-21 23:46:52.172,19489,214776,190751,-4295,-1.315021625,-4784,-1.4647412
2023-10-21 23:46:52.172,19490,214783,190753,-4609,-1.411160575,-4795,-1.468109125
2023-10-21 23:46:52.172,19491,214797,190763,-5749,-1.760200075,-4955,-1.517097125
2023-10-21 23:46:52.172,19492,214825,190758,-4822,-1.47637585,-5084,-1.5565937
2023-10-21 23:46:52.172,19493,214847,190782,-4265,-1.305836375,-4975,-1.523220625
2023-10-21 23:46:52.172,19494,214878,190785,-5461,-1.672021675,-5040,-1.543122
2023-10-21 23:46:52.201,19495,214897,190785,-5133,-1.571596275,-5181,-1.586292675
2023-10-21 23:46:52.201,19496,214888,190817,-3982,-1.21918885,-5056,-1.5480208
2023-10-21 23:46:52.201,19497,214921,190806,-5130,-1.57067775,-5004,-1.5320997
2023-10-21 23:46:52.201,19498,214948,190820,-5713,-1.749177775,-5109,-1.564248075
2023-10-21 23:46:52.201,19499,214959,190834,-4680,-1.432899,-5113,-1.565472775
2023-10-21 23:46:52.201,19500,215007,190838,-5173,-1.583843275,-5095,-1.559961625
2023-10-21 23:46:52.248,19501,215021,190850,-6417,-1.964724975,-5119,-1.567309825
2023-10-21 23:46:52.248,19502,215046,190864,-5667,-1.735093725,-5125,-1.569146875
2023-10-21 23:46:52.248,19503,215056,190860,-5301,-1.623033675,-5088,-1.5578184
2023-10-21 23:46:52.248,19504,215096,190873,-6753,-2.067599775,-4999,-1.530568825
2023-10-21 23:46:52.248,19505,215109,190880,-6740,-2.0636195,-5026,-1.53883555
2023-10-21 23:46:52.248,19506,215132,190880,-5676,-1.7378493,-4937,-1.511585975
2023-10-21 23:46:52.248,19507,215147,190887,-5999,-1.836743825,-4866,-1.48984755
2023-10-21 23:46:52.248,19508,215161,190889,-5781,-1.769997675,-5003,-1.531793525
2023-10-21 23:46:52.248,19509,215183,190904,-4139,-1.267258325,-5007,-1.533018225
2023-10-21 23:46:52.279,19510,215205,190903,-4309,-1.319308075,-4930,-1.50944275
2023-10-21 23:46:52.279,19511,215222,190912,-5549,-1.698965075,-4953,-1.516484775
2023-10-21 23:46:52.279,19512,215247,190926,-4671,-1.430143425,-4939,-1.512198325
2023-10-21 23:46:52.279,19513,215244,190926,-4290,-1.31349075,-4903,-1.501176025
2023-10-21 23:46:52.279,19514,215270,190940,-5547,-1.698352725,-4897,-1.499338975
2023-10-21 23:46:52.279,19515,215296,190938,-5419,-1.659162325,-4919,-1.506074825
2023-10-21 23:46:52.279,19516,215300,190939,-4478,-1.37105165,-4944,-1.5137292
2023-10-21 23:46:52.311,19517,215326,190947,-5471,-1.675083425,-5012,-1.5345491
2023-10-21 23:46:52.311,19518,215342,190953,-5902,-1.80704485,-5389,-1.649977075
2023-10-21 23:46:52.311,19519,215356,190962,-4612,-1.4120791,-5634,-1.72498995
2023-10-21 23:46:52.311,19520,215377,190954,-4943,-1.513423025,-5698,-1.74458515
2023-10-21 23:46:52.311,19521,215398,190973,-5983,-1.831845025,-6016,-1.8419488
2023-10-21 23:46:52.357,19522,215419,190975,-5148,-1.5761889,-6301,-1.929208675
2023-10-21 23:46:52.357,19523,215405,190979,-4594,-1.40656795,-6230,-1.90747025
2023-10-21 23:46:52.357,19524,215442,190980,-5864,-1.7954102,-6112,-1.8713416
2023-10-21 23:46:52.357,19525,215451,190990,-5610,-1.71764175,-5916,-1.8113313
2023-10-21 23:46:52.357,19526,215460,191007,-4565,-1.397688875,-5396,-1.6521203
2023-10-21 23:46:52.357,19527,215477,190992,-5443,-1.666510525,-4974,-1.52291445
2023-10-21 23:46:52.357,19528,215485,190999,-5803,-1.776733525,-4902,-1.50086985
2023-10-21 23:46:52.357,19529,215510,191002,-4646,-1.42248905,-4733,-1.449126275
2023-10-21 23:46:52.389,19530,215529,191022,-5014,-1.53516145,-4546,-1.39187155
2023-10-21 23:46:52.389,19531,215565,191021,-5905,-1.807963375,-4778,-1.46290415
2023-10-21 23:46:52.389,19532,215579,191034,-4993,-1.528731775,-5087,-1.557512225
2023-10-21 23:46:52.389,19533,215605,191051,-4515,-1.382380125,-5155,-1.578332125
2023-10-21 23:46:52.389,19534,215605,191055,-5705,-1.746728375,-5301,-1.623033675
2023-10-21 23:46:52.389,19535,215617,191059,-5565,-1.703863875,-5419,-1.659162325
2023-10-21 23:46:52.419,19536,215631,191060,-4432,-1.3569676,-5195,-1.590579125
2023-10-21 23:46:52.419,19537,215653,191064,-5521,-1.690392175,-5062,-1.54985785
2023-10-21 23:46:52.419,19538,215678,191060,-5908,-1.8088819,-5242,-1.60496935
2023-10-21 23:46:52.419,19539,215667,191081,-4511,-1.381155425,-5300,-1.6227275
2023-10-21 23:46:52.419,19540,215693,191078,-4765,-1.458923875,-5213,-1.596090275
2023-10-21 23:46:52.419,19541,215694,191085,-5752,-1.7611186,-5306,-1.62456455
2023-10-21 23:46:52.419,19542,215701,191080,-4800,-1.46964,-5306,-1.62456455
2023-10-21 23:46:52.419,19543,215691,191068,-4377,-1.340127975,-5265,-1.612011375
2023-10-21 23:46:52.435,19544,215671,191051,-5584,-1.7096812,-5276,-1.6153793
2023-10-21 23:46:52.435,19545,215630,191021,-5270,-1.61354225,-5288,-1.6190534
2023-10-21 23:46:52.435,19546,215569,190989,-4364,-1.3361477,-5265,-1.612011375
2023-10-21 23:46:52.435,19547,215493,190950,-5350,-1.63803625,-5262,-1.61109285
2023-10-21 23:46:52.435,19548,215390,190920,-5725,-1.752851875,-5285,-1.618134875
2023-10-21 23:46:52.435,19549,215302,190854,-4456,-1.3643158,-5282,-1.61721635
2023-10-21 23:46:52.435,19550,215184,190816,-4681,-1.433205175,-5257,-1.609561975
2023-10-21 23:46:52.481,19551,215067,190762,-5796,-1.7745903,-5252,-1.6080311
2023-10-21 23:46:52.481,19552,214945,190704,-5063,-1.550164025,-5247,-1.606500225
2023-10-21 23:46:52.481,19553,214794,190651,-4588,-1.4047309,-5224,-1.5994582
2023-10-21 23:46:52.481,19554,214659,190599,-5871,-1.797553425,-5224,-1.5994582
2023-10-21 23:46:52.481,19555,214520,190528,-5720,-1.751321,-5239,-1.604050825
2023-10-21 23:46:52.512,19556,214372,190467,-4654,-1.42493845,-5225,-1.599764375
2023-10-21 23:46:52.512,19557,214243,190426,-5514,-1.68824895,-5209,-1.594865575
2023-10-21 23:46:52.512,19558,214127,190378,-5776,-1.7684668,-5209,-1.594865575
2023-10-21 23:46:52.512,19559,214003,190333,-4431,-1.356661425,-5189,-1.588742075
2023-10-21 23:46:52.512,19560,213904,190287,-4624,-1.4157532,-5071,-1.552613425
2023-10-21 23:46:52.512,19561,213826,190263,-5636,-1.7256023,-5087,-1.557512225
2023-10-21 23:46:52.512,19562,213750,190240,-4746,-1.45310655,-5114,-1.56577895
2023-10-21 23:46:52.512,19563,213699,190205,-4058,-1.24245815,-5053,-1.547102275
2023-10-21 23:46:52.543,19564,213637,190190,-5033,-1.540978775,-5090,-1.55843075
2023-10-21 23:46:52.543,19565,213611,190169,-4719,-1.444839825,-5168,-1.5823124
2023-10-21 23:46:52.543,19566,213569,190167,-3672,-1.1242746,-5082,-1.55598135
2023-10-21 23:46:52.543,19567,213561,190156,-4300,-1.3165525,-5059,-1.548939325
2023-10-21 23:46:52.543,19568,213564,190151,-4585,-1.403812375,-5064,-1.5504702
2023-10-21 23:46:52.543,19569,213530,190150,-3324,-1.0177257,-5061,-1.549551675
2023-10-21 23:46:52.574,19570,213535,190142,-3897,-1.193163975,-5058,-1.54863315
2023-10-21 23:46:52.574,19571,213512,190145,-4773,-1.461373275,-5090,-1.55843075
2023-10-21 23:46:52.574,19572,213523,190129,-3941,-1.206635675,-5249,-1.607112575
2023-10-21 23:46:52.574,19573,213521,190140,-3532,-1.0814101,-5228,-1.6006829
2023-10-21 23:46:52.574,19574,213519,190123,-4638,-1.42003965,-5257,-1.609561975
2023-10-21 23:46:52.605,19575,213501,190126,-4423,-1.354212025,-5336,-1.6337498
2023-10-21 23:46:52.606,19576,213519,190125,-3323,-1.017419525,-5206,-1.59394705
2023-10-21 23:46:52.606,19577,213514,190119,-4083,-1.250112525,-5073,-1.553225775
2023-10-21 23:46:52.606,19578,213510,190116,-4690,-1.43596075,-5123,-1.568534525
2023-10-21 23:46:52.606,19579,213497,190121,-3584,-1.0973312,-5030,-1.54006025
2023-10-21 23:46:52.606,19580,213481,190105,-3581,-1.096412675,-4766,-1.45923005
2023-10-21 23:46:52.636,19581,213469,190093,-4469,-1.368296075,-4730,-1.44820775
2023-10-21 23:46:52.636,19582,213433,190060,-3668,-1.1230499,-4712,-1.4426966
2023-10-21 23:46:52.636,19583,213430,190079,-3166,-0.96935005,-4477,-1.370745475
2023-10-21 23:46:52.636,19584,213399,190065,-4204,-1.2871597,-4350,-1.33186125
2023-10-21 23:46:52.636,19585,213390,190038,-3977,-1.217657975,-4296,-1.3153278
2023-10-21 23:46:52.636,19586,213353,190029,-2894,-0.88607045,-4043,-1.237865525
2023-10-21 23:46:52.667,19587,213295,190017,-3788,-1.1597909,-3936,-1.2051048
2023-10-21 23:46:52.667,19588,213286,190006,-4193,-1.283791775,-4115,-1.259910125
2023-10-21 23:46:52.667,19589,213269,190003,-3058,-0.93628315,-4134,-1.26572745
2023-10-21 23:46:52.667,19590,213246,189990,-3367,-1.030891225,-4043,-1.237865525
2023-10-21 23:46:52.667,19591,213225,189972,-4285,-1.311959875,-4166,-1.27552505
2023-10-21 23:46:52.699,19592,213209,189968,-3451,-1.056609925,-4232,-1.2957326
2023-10-21 23:46:52.699,19593,213192,189960,-2945,-0.901685375,-4085,-1.250724875
2023-10-21 23:46:52.699,19594,213188,189962,-4090,-1.25225575,-4066,-1.24490755
2023-10-21 23:46:52.699,19595,213202,189963,-3963,-1.213371525,-4091,-1.252561925
2023-10-21 23:46:52.699,19596,213217,189964,-2906,-0.88974455,-4064,-1.2442952
2023-10-21 23:46:52.699,19597,213223,189962,-3667,-1.122743725,-4048,-1.2393964
2023-10-21 23:46:52.731,19598,213256,189976,-4296,-1.3153278,-4063,-1.243989025
2023-10-21 23:46:52.731,19599,213276,189973,-3125,-0.956796875,-4044,-1.2381717
2023-10-21 23:46:52.731,19600,213314,190004,-3400,-1.040995,-3882,-1.18857135
2023-10-21 23:46:52.731,19601,213320,190012,-4385,-1.342577375,-3870,-1.18489725
2023-10-21 23:46:52.731,19602,213334,190003,-3532,-1.0814101,-3865,-1.183366375
2023-10-21 23:46:52.731,19603,213365,190012,-3027,-0.926791725,-3707,-1.134990725
2023-10-21 23:46:52.760,19604,213387,190026,-4180,-1.2798115,-3667,-1.122743725
2023-10-21 23:46:52.760,19605,213396,190021,-4070,-1.24613225,-3756,-1.1499933
2023-10-21 23:46:52.760,19606,213419,190038,-3060,-0.9368955,-3683,-1.127642525
2023-10-21 23:46:52.760,19607,213409,190037,-3754,-1.14938095,-3630,-1.11141525
2023-10-21 23:46:52.760,19608,213421,190028,-4201,-1.286241175,-3701,-1.133153675
2023-10-21 23:46:52.760,19609,213429,190030,-3030,-0.92771025,-3680,-1.126724
2023-10-21 23:46:52.760,19610,213423,190013,-3501,-1.071918675,-3647,-1.116620225
2023-10-21 23:46:52.792,19611,213416,190022,-4440,-1.359417,-3636,-1.1132523
2023-10-21 23:46:52.792,19612,213414,190011,-3615,-1.106822625,-3630,-1.11141525
2023-10-21 23:46:52.792,19613,213418,190005,-3021,-0.924954675,-3609,-1.104985575
2023-10-21 23:46:52.792,19614,213418,189991,-4245,-1.299712875,-3607,-1.104373225
2023-10-21 23:46:52.792,19615,213402,190000,-4089,-1.251949575,-3619,-1.108047325
2023-10-21 23:46:52.792,19616,213398,190005,-2926,-0.89586805,-3611,-1.105597925
2023-10-21 23:46:52.792,19617,213404,189995,-3703,-1.133766025,-3607,-1.104373225
2023-10-21 23:46:52.823,19618,213393,190003,-4289,-1.313184575,-3627,-1.110496725
2023-10-21 23:46:52.823,19619,213391,189987,-3079,-0.942712825,-3632,-1.1120276
2023-10-21 23:46:52.823,19620,213367,189986,-3213,-0.983740275,-3627,-1.110496725
2023-10-21 23:46:52.823,19621,213389,189986,-4217,-1.291139975,-3646,-1.11631405
2023-10-21 23:46:52.823,19622,213382,189998,-3556,-1.0887583,-3665,-1.122131375
2023-10-21 23:46:52.823,19623,213400,189993,-3003,-0.919443525,-3660,-1.1206005
2023-10-21 23:46:52.854,19624,213394,189993,-4107,-1.257460725,-3668,-1.1230499
2023-10-21 23:46:52.854,19625,213413,189999,-4019,-1.230517325,-3686,-1.12856105
2023-10-21 23:46:52.854,19626,213433,189991,-2932,-0.8977051,-3678,-1.12611165
2023-10-21 23:46:52.854,19627,213432,189995,-3759,-1.150911825,-3675,-1.125193125
2023-10-21 23:46:52.854,19628,213430,189996,-4071,-1.246438425,-3694,-1.13101045
2023-10-21 23:46:52.854,19629,213447,190002,-2968,-0.9087274,-3695,-1.131316625
2023-10-21 23:46:52.854,19630,213471,190012,-3111,-0.952510425,-3682,-1.12733635
2023-10-21 23:46:52.885,19631,213477,190011,-4059,-1.242764325,-3695,-1.131316625
2023-10-21 23:46:52.885,19632,213508,190017,-3147,-0.963532725,-3709,-1.135603075
2023-10-21 23:46:52.885,19633,213524,190013,-2639,-0.807995825,-3697,-1.131928975
2023-10-21 23:46:52.885,19634,213536,190022,-3803,-1.164383525,-3694,-1.13101045
2023-10-21 23:46:52.885,19635,213563,190044,-3634,-1.11263995,-3703,-1.133766025
2023-10-21 23:46:52.885,19636,213588,190047,-2624,-0.8034032,-3689,-1.129479575
2023-10-21 23:46:52.917,19637,213629,190062,-3519,-1.077429825,-3657,-1.119681975
2023-10-21 23:46:52.917,19638,213644,190070,-4006,-1.22653705,-3676,-1.1254993
2023-10-21 23:46:52.917,19639,213675,190066,-2925,-0.895561875,-3667,-1.122743725
2023-10-21 23:46:52.917,19640,213679,190090,-3166,-0.96935005,-3644,-1.1157017
2023-10-21 23:46:52.917,19641,213699,190079,-4090,-1.25225575,-3648,-1.1169264
2023-10-21 23:46:52.948,19642,213738,190107,-3212,-0.9834341,-3649,-1.117232575
2023-10-21 23:46:52.948,19643,213748,190110,-2751,-0.842287425,-3625,-1.109884375
2023-10-21 23:46:52.948,19644,213781,190106,-4012,-1.2283741,-3618,-1.10774115
2023-10-21 23:46:52.948,19645,213812,190124,-3866,-1.18367255,-3625,-1.109884375
2023-10-21 23:46:52.948,19646,213824,190128,-2845,-0.871067875,-3606,-1.10406705
2023-10-21 23:46:52.948,19647,213846,190124,-3722,-1.13958335,-3587,-1.098249725
2023-10-21 23:46:52.948,19648,213870,190147,-4288,-1.3128784,-3588,-1.0985559
2023-10-21 23:46:52.980,19649,213887,190157,-3206,-0.98159705,-3539,-1.083553325
2023-10-21 23:46:52.980,19650,213905,190149,-3192,-0.9773106,-3343,-1.023543025
2023-10-21 23:46:52.980,19651,213936,190163,-4191,-1.283179425,-3372,-1.0324221
2023-10-21 23:46:52.980,19652,213941,190186,-3298,-1.00976515,-3427,-1.049261725
2023-10-21 23:46:52.980,19653,213993,190174,-2709,-0.829428075,-3332,-1.0201751
2023-10-21 23:46:52.980,19654,214006,190175,-3839,-1.175405825,-3344,-1.0238492
2023-10-21 23:46:53.012,19655,214001,190191,-3657,-1.119681975,-3433,-1.051098775
2023-10-21 23:46:53.012,19656,214031,190192,-2616,-0.8009538,-3373,-1.032728275
2023-10-21 23:46:53.012,19657,214052,190201,-3368,-1.0311974,-3355,-1.027217125
2023-10-21 23:46:53.013,19658,214076,190200,-3833,-1.173568775,-3366,-1.03058505
2023-10-21 23:46:53.013,19659,214074,190217,-2810,-0.86035175,-3365,-1.030278875
2023-10-21 23:46:53.013,19660,214101,190231,-3055,-0.935364625,-3356,-1.0275233
2023-10-21 23:46:53.013,19661,214118,190238,-3959,-1.212146825,-3378,-1.03425915
2023-10-21 23:46:53.013,19662,214135,190243,-3176,-0.9724118,-3403,-1.041913525
2023-10-21 23:46:53.043,19663,214158,190248,-2727,-0.834939225,-3408,-1.0434444
2023-10-21 23:46:53.043,19664,214187,190258,-3738,-1.14448215,-3431,-1.050486425
2023-10-21 23:46:53.043,19665,214189,190261,-3614,-1.10651645,-3504,-1.0728372
2023-10-21 23:46:53.043,19666,214211,190262,-2707,-0.828815725,-3543,-1.084778025
2023-10-21 23:46:53.043,19667,214218,190265,-3550,-1.08692125,-3517,-1.076817475
2023-10-21 23:46:53.043,19668,214252,190285,-3946,-1.20816655,-3560,-1.089983
2023-10-21 23:46:53.043,19669,214276,190286,-2774,-0.84932945,-3543,-1.084778025
2023-10-21 23:46:53.074,19670,214299,190297,-2965,-0.907808875,-3449,-1.055997575
2023-10-21 23:46:53.074,19671,214324,190300,-3997,-1.223781475,-3487,-1.067632225
2023-10-21 23:46:53.074,19672,214333,190316,-3309,-1.013133075,-3500,-1.0716125
2023-10-21 23:46:53.074,19673,214354,190320,-2766,-0.84688005,-3371,-1.032115925
2023-10-21 23:46:53.074,19674,214352,190333,-3602,-1.10284235,-3327,-1.018644225
2023-10-21 23:46:53.104,19675,214386,190319,-3483,-1.066407525,-3404,-1.0422197
2023-10-21 23:46:53.104,19676,214410,190333,-2458,-0.75257815,-3345,-1.024155375
2023-10-21 23:46:53.104,19677,214433,190338,-3263,-0.999049025,-3303,-1.011296025
2023-10-21 23:46:53.104,19678,214450,190362,-3684,-1.1279487,-3370,-1.03180975
2023-10-21 23:46:53.104,19679,214472,190350,-2646,-0.81013905,-3343,-1.023543025
2023-10-21 23:46:53.104,19680,214503,190378,-2854,-0.87382345,-3310,-1.01343925
2023-10-21 23:46:53.104,19681,214535,190389,-3685,-1.128254875,-3309,-1.013133075
2023-10-21 23:46:53.135,19682,214552,190394,-3081,-0.943325175,-3312,-1.0140516
2023-10-21 23:46:53.135,19683,214581,190413,-2532,-0.7752351,-3299,-1.010071325
2023-10-21 23:46:53.135,19684,214609,190413,-3499,-1.071306325,-3306,-1.01221455
2023-10-21 23:46:53.135,19685,214644,190427,-3393,-1.038851775,-3326,-1.01833805
2023-10-21 23:46:53.135,19686,214670,190430,-2538,-0.77707215,-3322,-1.01711335
2023-10-21 23:46:53.135,19687,214697,190443,-3405,-1.042525875,-3317,-1.015582475
2023-10-21 23:46:53.166,19688,214720,190459,-4004,-1.2259247,-3333,-1.020481275
2023-10-21 23:46:53.166,19689,214758,190469,-3026,-0.92648555,-3338,-1.02201215
2023-10-21 23:46:53.166,19690,214783,190488,-3128,-0.9577154,-3330,-1.01956275
2023-10-21 23:46:53.166,19691,214828,190493,-4022,-1.23143585,-3336,-1.0213998
2023-10-21 23:46:53.166,19692,214871,190516,-3177,-0.972717975,-3335,-1.021093625
2023-10-21 23:46:53.198,19693,214888,190533,-2833,-0.867393775,-3310,-1.01343925
2023-10-21 23:46:53.198,19694,214933,190535,-4249,-1.300937575,-3285,-1.005784875
2023-10-21 23:46:53.198,19695,214951,190553,-4532,-1.3875851,-3284,-1.0054787
2023-10-21 23:46:53.198,19696,214986,190569,-3818,-1.16897615,-3254,-0.99629345
2023-10-21 23:46:53.198,19697,215004,190579,-4961,-1.518934175,-3157,-0.966594475
2023-10-21 23:46:53.198,19698,215045,190582,-5327,-1.630994225,-3195,-0.978229125
2023-10-21 23:46:53.198,19699,215093,190602,-3648,-1.1169264,-3195,-0.978229125
2023-10-21 23:46:53.230,19700,215123,190618,-3136,-0.9601648,-3166,-0.96935005
2023-10-21 23:46:53.230,19701,215150,190607,-3647,-1.116620225,-3155,-0.965982125
2023-10-21 23:46:53.230,19702,215178,190632,-3018,-0.92403615,-3147,-0.963532725
2023-10-21 23:46:53.230,19703,215188,190651,-2572,-0.7874821,-3126,-0.95710305
2023-10-21 23:46:53.230,19704,215240,190646,-3669,-1.123356075,-3126,-0.95710305
2023-10-21 23:46:53.230,19705,215256,190664,-3533,-1.081716275,-3148,-0.9638389
2023-10-21 23:46:53.260,19706,215283,190668,-2626,-0.80401555,-3212,-0.9834341
2023-10-21 23:46:53.260,19707,215298,190668,-3279,-1.003947825,-3247,-0.994150225
2023-10-21 23:46:53.260,19708,215334,190698,-3689,-1.129479575,-3374,-1.03303445
2023-10-21 23:46:53.260,19709,215348,190706,-2711,-0.830040425,-3386,-1.03670855
2023-10-21 23:46:53.260,19710,215363,190697,-2916,-0.8928063,-3312,-1.0140516
2023-10-21 23:46:53.292,19711,215387,190705,-3942,-1.20694185,-3464,-1.0605902
2023-10-21 23:46:53.292,19712,215417,190721,-3179,-0.973330325,-3767,-1.153361225
2023-10-21 23:46:53.292,19713,215452,190733,-2536,-0.7764598,-3949,-1.209085075
2023-10-21 23:46:53.292,19714,215468,190748,-3628,-1.1108029,-4305,-1.318083375
2023-10-21 23:46:53.292,19715,215485,190745,-3513,-1.075592775,-4688,-1.4353484
2023-10-21 23:46:53.292,19716,215529,190767,-2530,-0.77462275,-4551,-1.393402425
2023-10-21 23:46:53.324,19717,215547,190769,-3317,-1.015582475,-4141,-1.267870675
2023-10-21 23:46:53.324,19718,215589,190767,-3961,-1.212759175,-3838,-1.17509965
2023-10-21 23:46:53.324,19719,215614,190796,-3048,-0.9332214,-3448,-1.0556914
2023-10-21 23:46:53.324,19720,215641,190808,-3011,-0.921892925,-3037,-0.929853475
2023-10-21 23:46:53.324,19721,215665,190822,-3994,-1.22286295,-2984,-0.9136262
2023-10-21 23:46:53.324,19722,215696,190827,-3247,-0.994150225,-3076,-0.9417943
2023-10-21 23:46:53.354,19723,215720,190844,-2758,-0.84443065,-3071,-0.940263425
2023-10-21 23:46:53.354,19724,215750,190862,-3823,-1.170507025,-3231,-0.989251425
2023-10-21 23:46:53.354,19725,215795,190867,-3680,-1.126724,-3434,-1.05140495
2023-10-21 23:46:53.354,19726,215819,190875,-2559,-0.783501825,-3303,-1.011296025
2023-10-21 23:46:53.354,19727,215825,190894,-3247,-0.994150225,-3136,-0.9601648
2023-10-21 23:46:53.354,19728,215859,190901,-3829,-1.172344075,-3203,-0.980678525
2023-10-21 23:46:53.354,19729,215901,190913,-2942,-0.90076685,-3178,-0.97302415
2023-10-21 23:46:53.386,19730,215911,190918,-3140,-0.9613895,-3117,-0.954347475
2023-10-21 23:46:53.386,19731,215912,190925,-4143,-1.268483025,-3203,-0.980678525
2023-10-21 23:46:53.386,19732,215931,190926,-3412,-1.0446691,-3273,-1.002110775
2023-10-21 23:46:53.386,19733,215942,190932,-2768,-0.8474924,-3221,-0.986189675
2023-10-21 23:46:53.386,19734,215929,190914,-3714,-1.13713395,-3225,-0.987414375
2023-10-21 23:46:53.386,19735,215905,190895,-3670,-1.12366225,-3242,-0.99261935
2023-10-21 23:46:53.386,19736,215870,190890,-2879,-0.881477825,-3222,-0.98649585
2023-10-21 23:46:53.418,19737,215822,190855,-3536,-1.0826348,-3219,-0.985577325
2023-10-21 23:46:53.418,19738,215746,190816,-4058,-1.24245815,-3281,-1.004560175
2023-10-21 23:46:53.418,19739,215653,190771,-3102,-0.94975485,-3369,-1.031503575
2023-10-21 23:46:53.418,19740,215557,190732,-3211,-0.983127925,-3310,-1.01343925
2023-10-21 23:46:53.418,19741,215450,190686,-4201,-1.286241175,-3327,-1.018644225
2023-10-21 23:46:53.418,19742,215351,190630,-3585,-1.097637375,-3340,-1.0226245
2023-10-21 23:46:53.449,19743,215208,190570,-3076,-0.9417943,-3292,-1.0079281
2023-10-21 23:46:53.449,19744,215085,190540,-4193,-1.283791775,-3279,-1.003947825
2023-10-21 23:46:53.449,19745,214954,190456,-3992,-1.2222506,-3332,-1.0201751
2023-10-21 23:46:53.449,19746,214831,190410,-2918,-0.89341865,-3335,-1.021093625
2023-10-21 23:46:53.449,19747,214686,190363,-3916,-1.1989813,-3337,-1.021705975
2023-10-21 23:46:53.449,19748,214562,190302,-4555,-1.394627125,-3365,-1.030278875
2023-10-21 23:46:53.449,19749,214423,190255,-3431,-1.050486425,-3364,-1.0299727
2023-10-21 23:46:53.481,19750,214324,190212,-3355,-1.027217125,-3340,-1.0226245
2023-10-21 23:46:53.481,19751,214199,190155,-4272,-1.3079796,-3346,-1.02446155
2023-10-21 23:46:53.481,19752,214096,190114,-3612,-1.1059041,-3375,-1.033340625
2023-10-21 23:46:53.481,19753,214012,190100,-3206,-0.98159705,-3363,-1.029666525
2023-10-21 23:46:53.481,19754,213955,190051,-4334,-1.32696245,-3377,-1.033952975
2023-10-21 23:46:53.481,19755,213887,190049,-4098,-1.25470515,-3407,-1.043138225
2023-10-21 23:46:53.512,19756,213832,190033,-2949,-0.902910075,-3415,-1.045587625
2023-10-21 23:46:53.512,19757,213823,190007,-3611,-1.105597925,-3424,-1.0483432
2023-10-21 23:46:53.512,19758,213792,190010,-3948,-1.2087789,-3455,-1.057834625
2023-10-21 23:46:53.512,19759,213753,189981,-2952,-0.9038286,-3497,-1.070693975
2023-10-21 23:46:53.512,19760,213753,189968,-3125,-0.956796875,-3501,-1.071918675
2023-10-21 23:46:53.542,19761,213730,189983,-4039,-1.236640825,-3550,-1.08692125
2023-10-21 23:46:53.542,19762,213716,189978,-3293,-1.008234275,-3626,-1.11019055
2023-10-21 23:46:53.542,19763,213731,189975,-2710,-0.82973425,-3575,-1.094575625
2023-10-21 23:46:53.542,19764,213710,189970,-3696,-1.1316228,-3611,-1.105597925
2023-10-21 23:46:53.542,19765,213710,189970,-3576,-1.0948818,-3770,-1.15427975
2023-10-21 23:46:53.542,19766,213721,189970,-2536,-0.7764598,-3770,-1.15427975
2023-10-21 23:46:53.542,19767,213711,189956,-3190,-0.97669825,-3701,-1.133153675
2023-10-21 23:46:53.573,19768,213716,189971,-3858,-1.18122315,-3726,-1.14080805
2023-10-21 23:46:53.573,19769,213708,189965,-2915,-0.892500125,-3736,-1.1438698
2023-10-21 23:46:53.573,19770,213695,189953,-3138,-0.96077715,-3733,-1.142951275
2023-10-21 23:46:53.573,19771,213689,189926,-4058,-1.24245815,-3754,-1.14938095
2023-10-21 23:46:53.573,19772,213683,189941,-3316,-1.0152763,-3769,-1.153973575
2023-10-21 23:46:53.573,19773,213669,189927,-2578,-0.78931915,-3758,-1.15060565
2023-10-21 23:46:53.605,19774,213641,189927,-3608,-1.1046794,-3754,-1.14938095
2023-10-21 23:46:53.605,19775,213620,189905,-3474,-1.06365195,-3753,-1.149074775
2023-10-21 23:46:53.605,19776,213614,189900,-2462,-0.75380285,-3687,-1.128867225
2023-10-21 23:46:53.605,19777,213598,189888,-3148,-0.9638389,-3518,-1.07712365
2023-10-21 23:46:53.605,19778,213556,189870,-3724,-1.1401957,-3514,-1.07589895
2023-10-21 23:46:53.605,19779,213533,189856,-2867,-0.877803725,-3451,-1.056609925
2023-10-21 23:46:53.605,19780,213519,189860,-2992,-0.9160756,-3307,-1.012520725
2023-10-21 23:46:53.605,19781,213470,189836,-3816,-1.1683638,-3380,-1.0348715
2023-10-21 23:46:53.635,19782,213463,189835,-3095,-0.947611625,-3453,-1.057222275
2023-10-21 23:46:53.636,19783,213450,189828,-2628,-0.8046279,-3332,-1.0201751
2023-10-21 23:46:53.636,19784,213457,189820,-3634,-1.11263995,-3257,-0.997211975
2023-10-21 23:46:53.636,19785,213442,189817,-3555,-1.088452125,-3304,-1.0116022
2023-10-21 23:46:53.636,19786,213428,189829,-2498,-0.76482515,-3297,-1.009458975
2023-10-21 23:46:53.636,19787,213431,189810,-3249,-0.994762575,-3290,-1.00731575
2023-10-21 23:46:53.636,19788,213466,189828,-3724,-1.1401957,-3313,-1.014357775
2023-10-21 23:46:53.667,19789,213463,189832,-2783,-0.852085025,-3355,-1.027217125
2023-10-21 23:46:53.667,19790,213495,189830,-2770,-0.84810475,-3302,-1.01098985
2023-10-21 23:46:53.667,19791,213497,189846,-3770,-1.15427975,-3306,-1.01221455
2023-10-21 23:46:53.667,19792,213531,189848,-3366,-1.03058505,-3302,-1.01098985
2023-10-21 23:46:53.667,19793,213556,189868,-2824,-0.8646382,-3205,-0.981290875
2023-10-21 23:46:53.698,19794,213572,189856,-3774,-1.15550445,-3138,-0.96077715
2023-10-21 23:46:53.698,19795,213583,189874,-3685,-1.128254875,-3222,-0.98649585
2023-10-21 23:46:53.698,19796,213611,189869,-2683,-0.821467525,-3213,-0.983740275
2023-10-21 23:46:53.698,19797,213637,189870,-3297,-1.009458975,-3202,-0.98037235
2023-10-21 23:46:53.698,19798,213641,189889,-3963,-1.213371525,-3282,-1.00486635
2023-10-21 23:46:53.698,19799,213648,189883,-2908,-0.8903569,-3256,-0.9969058
2023-10-21 23:46:53.698,19800,213657,189880,-2960,-0.906278,-3203,-0.980678525
2023-10-21 23:46:53.729,19801,213671,189886,-4106,-1.25715455,-3196,-0.9785353
2023-10-21 23:46:53.729,19802,213675,189883,-3390,-1.03793325,-3197,-0.978841475
2023-10-21 23:46:53.729,19803,213693,189895,-2905,-0.889438375,-3183,-0.974555025
2023-10-21 23:46:53.729,19804,213704,189896,-4070,-1.24613225,-3187,-0.975779725
2023-10-21 23:46:53.729,19805,213701,189901,-3900,-1.1940825,-3209,-0.982515575
2023-10-21 23:46:53.729,19806,213710,189893,-2776,-0.8499418,-3208,-0.9822094
2023-10-21 23:46:53.761,19807,213702,189895,-3502,-1.07222485,-3199,-0.979453825
2023-10-21 23:46:53.761,19808,213705,189890,-4071,-1.246438425,-3205,-0.981290875
2023-10-21 23:46:53.761,19809,213691,189886,-3078,-0.94240665,-3204,-0.9809847
2023-10-21 23:46:53.761,19810,213710,189873,-3113,-0.953122775,-3198,-0.97914765
2023-10-21 23:46:53.761,19811,213715,189877,-3934,-1.20449245,-3217,-0.984964975
2023-10-21 23:46:53.794,19812,213692,189877,-3241,-0.992313175,-3268,-1.0005799
2023-10-21 23:46:53.794,19813,213711,189893,-2687,-0.822692225,-3254,-0.99629345
2023-10-21 23:46:53.794,19814,213712,189890,-3706,-1.13468455,-3262,-0.99874285
2023-10-21 23:46:53.794,19815,213727,189889,-3611,-1.105597925,-3304,-1.0116022
2023-10-21 23:46:53.794,19816,213758,189883,-2723,-0.833714525,-3295,-1.008846625
2023-10-21 23:46:53.794,19817,213742,189864,-3268,-1.0005799,-3288,-1.0067034
2023-10-21 23:46:53.794,19818,213777,189897,-4072,-1.2467446,-3323,-1.017419525
2023-10-21 23:46:53.825,19819,213779,189896,-3094,-0.94730545,-3345,-1.024155375
2023-10-21 23:46:53.825,19820,213796,189893,-3074,-0.94118195,-3354,-1.02691095
2023-10-21 23:46:53.825,19821,213802,189922,-3950,-1.20939125,-3386,-1.03670855
2023-10-21 23:46:53.825,19822,213813,189907,-3290,-1.00731575,-3504,-1.0728372
2023-10-21 23:46:53.825,19823,213838,189925,-2590,-0.79299325,-3438,-1.05262965
2023-10-21 23:46:53.825,19824,213860,189921,-3401,-1.041301175,-3428,-1.0495679
2023-10-21 23:46:53.856,19825,213862,189927,-3335,-1.021093625,-3489,-1.068244575
2023-10-21 23:46:53.856,19826,213904,189948,-2364,-0.7237977,-3467,-1.061508725
2023-10-21 23:46:53.856,19827,213929,189971,-3142,-0.96200185,-3439,-1.052935825
2023-10-21 23:46:53.856,19828,213936,189984,-3624,-1.1095782,-3483,-1.066407525
2023-10-21 23:46:53.856,19829,213977,189974,-2730,-0.83585775,-3485,-1.067019875
2023-10-21 23:46:53.856,19830,213986,189978,-2810,-0.86035175,-3419,-1.046812325
2023-10-21 23:46:53.856,19831,214007,189997,-3764,-1.1524427,-3409,-1.043750575
2023-10-21 23:46:53.856,19832,214050,190010,-3062,-0.93750785,-3425,-1.048649375
2023-10-21 23:46:53.887,19833,214079,190009,-2436,-0.7458423,-3391,-1.038239425
2023-10-21 23:46:53.887,19834,214116,190031,-3390,-1.03793325,-3350,-1.02568625
2023-10-21 23:46:53.887,19835,214112,190033,-3298,-1.00976515,-3383,-1.035790025
2023-10-21 23:46:53.887,19836,214142,190042,-2332,-0.7140001,-3361,-1.029054175
2023-10-21 23:46:53.887,19837,214159,190032,-2958,-0.90566565,-3349,-1.025380075
2023-10-21 23:46:53.887,19838,214193,190067,-3584,-1.0973312,-3358,-1.02813565
2023-10-21 23:46:53.887,19839,214218,190062,-2770,-0.84810475,-3357,-1.027829475
2023-10-21 23:46:53.919,19840,214198,190060,-2545,-0.779215375,-3340,-1.0226245
2023-10-21 23:46:53.919,19841,214247,190070,-3600,-1.10223,-3332,-1.0201751
2023-10-21 23:46:53.919,19842,214247,190086,-3030,-0.92771025,-3290,-1.00731575
2023-10-21 23:46:53.919,19843,214308,190084,-2487,-0.761457225,-3107,-0.951285725
2023-10-21 23:46:53.919,19844,214309,190096,-3515,-1.076205125,-3047,-0.932915225
2023-10-21 23:46:53.950,19845,214332,190111,-3738,-1.14448215,-3146,-0.96322655
2023-10-21 23:46:53.950,19846,214366,190113,-2652,-0.8119761,-3105,-0.950673375
2023-10-21 23:46:53.950,19847,214383,190120,-3147,-0.963532725,-3071,-0.940263425
2023-10-21 23:46:53.981,19848,214404,190132,-3661,-1.120906675,-3188,-0.9760859
2023-10-21 23:46:53.981,19849,214398,190141,-2781,-0.851472675,-3173,-0.971493275
2023-10-21 23:46:53.981,19850,214425,190147,-2812,-0.8609641,-3102,-0.94975485
2023-10-21 23:46:53.981,19851,214444,190146,-3712,-1.1365216,-3087,-0.945162225
2023-10-21 23:46:53.981,19852,214474,190157,-3200,-0.97976,-3079,-0.942712825
2023-10-21 23:46:53.981,19853,214482,190158,-2635,-0.806771125,-3056,-0.9356708
2023-10-21 23:46:54.012,19854,214503,190152,-3527,-1.079879225,-3042,-0.93138435
2023-10-21 23:46:54.012,19855,214531,190168,-3552,-1.0875336,-3057,-0.935976975
2023-10-21 23:46:54.012,19856,214531,190181,-2705,-0.828203375,-3049,-0.933527575
2023-10-21 23:46:54.012,19857,214564,190187,-3264,-0.9993552,-3031,-0.928016425
2023-10-21 23:46:54.012,19858,214597,190193,-4095,-1.253786625,-3041,-0.931078175
2023-10-21 23:46:54.012,19859,214624,190210,-3150,-0.96445125,-3030,-0.92771025
2023-10-21 23:46:54.044,19860,214649,190224,-2809,-0.860045575,-3009,-0.921280575
2023-10-21 23:46:54.044,19861,214667,190227,-3723,-1.139889525,-3014,-0.92281145
2023-10-21 23:46:54.044,19862,214703,190229,-3167,-0.969656225,-3060,-0.9368955
2023-10-21 23:46:54.044,19863,214709,190232,-2418,-0.74033115,-3074,-0.94118195
2023-10-21 23:46:54.044,19864,214728,190253,-3239,-0.991700825,-3082,-0.94363135
2023-10-21 23:46:54.044,19865,214751,190258,-3473,-1.063345775,-3133,-0.959246275
2023-10-21 23:46:54.044,19866,214795,190274,-2504,-0.7666622,-3134,-0.95955245
2023-10-21 23:46:54.074,19867,214805,190279,-2996,-0.9173003,-3118,-0.95465365
2023-10-21 23:46:54.074,19868,214847,190302,-3662,-1.12121285,-3146,-0.96322655
2023-10-21 23:46:54.074,19869,214865,190309,-2687,-0.822692225,-3158,-0.96690065
2023-10-21 23:46:54.074,19870,214879,190316,-2601,-0.796361175,-3156,-0.9662883
2023-10-21 23:46:54.074,19871,214912,190312,-3474,-1.06365195,-3174,-0.97179945
2023-10-21 23:46:54.074,19872,214948,190330,-2862,-0.87627285,-3193,-0.977616775
2023-10-21 23:46:54.074,19873,214964,190346,-2342,-0.71706185,-3189,-0.976392075
2023-10-21 23:46:54.105,19874,214985,190355,-3337,-1.021705975,-3194,-0.97792295
2023-10-21 23:46:54.105,19875,215020,190359,-3386,-1.03670855,-3218,-0.98527115
2023-10-21 23:46:54.105,19876,215029,190361,-2438,-0.74645465,-3250,-0.99506875
2023-10-21 23:46:54.105,19877,215064,190370,-3049,-0.933527575,-3236,-0.9907823
2023-10-21 23:46:54.105,19878,215079,190383,-3686,-1.12856105,-3257,-0.997211975
2023-10-21 23:46:54.105,19879,215132,190400,-2648,-0.8107514,-3267,-1.000273725
2023-10-21 23:46:54.105,19880,215136,190403,-2418,-0.74033115,-3223,-0.986802025
2023-10-21 23:46:54.105,19881,215163,190419,-3323,-1.017419525,-3194,-0.97792295
2023-10-21 23:46:54.105,19882,215188,190429,-2879,-0.881477825,-3177,-0.972717975
2023-10-21 23:46:54.137,19883,215208,190433,-2297,-0.703283975,-3049,-0.933527575
2023-10-21 23:46:54.137,19884,215230,190439,-3324,-1.0177257,-3018,-0.92403615
2023-10-21 23:46:54.137,19885,215236,190453,-3326,-1.01833805,-3143,-0.962308025
2023-10-21 23:46:54.137,19886,215272,190449,-2367,-0.724716225,-3118,-0.95465365
2023-10-21 23:46:54.137,19887,215278,190454,-2926,-0.89586805,-3051,-0.934139925
2023-10-21 23:46:54.137,19888,215312,190455,-3337,-1.021705975,-3070,-0.93995725
2023-10-21 23:46:54.137,19889,215322,190476,-2583,-0.790850025,-3049,-0.933527575
2023-10-21 23:46:54.167,19890,215350,190469,-2647,-0.810445225,-3009,-0.921280575
2023-10-21 23:46:54.167,19891,215366,190489,-3652,-1.1181511,-2991,-0.915769425
2023-10-21 23:46:54.167,19892,215381,190506,-3086,-0.94485605,-2992,-0.9160756
2023-10-21 23:46:54.167,19893,215392,190507,-2514,-0.76972395,-2982,-0.91301385
2023-10-21 23:46:54.167,19894,215433,190507,-3691,-1.130091925,-2987,-0.914544725
2023-10-21 23:46:54.167,19895,215447,190517,-3890,-1.19102075,-3008,-0.9209744
2023-10-21 23:46:54.199,19896,215470,190530,-3089,-0.945774575,-3003,-0.919443525
2023-10-21 23:46:54.199,19897,215488,190544,-3846,-1.17754905,-2983,-0.913320025
2023-10-21 23:46:54.199,19898,215508,190557,-4113,-1.259297775,-2977,-0.911482975
2023-10-21 23:46:54.199,19899,215531,190560,-2779,-0.850860325,-2964,-0.9075027
2023-10-21 23:46:54.199,19900,215544,190547,-2302,-0.70481485,-2910,-0.89096925
2023-10-21 23:46:54.199,19901,215576,190563,-2964,-0.9075027,-2940,-0.9001545
2023-10-21 23:46:54.199,19902,215596,190585,-2521,-0.771867175,-2961,-0.906584175
2023-10-21 23:46:54.230,19903,215603,190569,-2015,-0.616942625,-2942,-0.90076685
2023-10-21 23:46:54.232,19904,215639,190582,-3138,-0.96077715,-2936,-0.8989298
2023-10-21 23:46:54.232,19905,215641,190590,-3268,-1.0005799,-2947,-0.902297725
2023-10-21 23:46:54.232,19906,215668,190606,-2329,-0.713081575,-2920,-0.894031
2023-10-21 23:46:54.232,19907,215692,190595,-2776,-0.8499418,-2901,-0.888213675
2023-10-21 23:46:54.232,19908,215720,190610,-3415,-1.045587625,-2913,-0.891887775
2023-10-21 23:46:54.262,19909,215733,190638,-2487,-0.761457225,-2926,-0.89586805
2023-10-21 23:46:54.262,19910,215758,190636,-2577,-0.789012975,-2935,-0.898623625
2023-10-21 23:46:54.262,19911,215771,190647,-3577,-1.095187975,-2974,-0.91056445
2023-10-21 23:46:54.262,19912,215785,190655,-3001,-0.918831175,-3300,-1.0103775
2023-10-21 23:46:54.262,19913,215805,190656,-2332,-0.7140001,-3394,-1.03915795
2023-10-21 23:46:54.293,19914,215818,190659,-3369,-1.031503575,-3515,-1.076205125
2023-10-21 23:46:54.293,19915,215837,190668,-3483,-1.066407525,-3655,-1.119069625
2023-10-21 23:46:54.293,19916,215866,190667,-2561,-0.784114175,-3457,-1.058446975
2023-10-21 23:46:54.293,19917,215868,190675,-2895,-0.886376625,-3135,-0.959858625
2023-10-21 23:46:54.293,19918,215879,190670,-3354,-1.02691095,-2985,-0.913932375
2023-10-21 23:46:54.293,19919,215895,190684,-2361,-0.722879175,-2771,-0.848410925
2023-10-21 23:46:54.293,19920,215935,190690,-2228,-0.6821579,-2481,-0.759620175
2023-10-21 23:46:54.293,19921,215952,190705,-3030,-0.92771025,-2507,-0.767580725
2023-10-21 23:46:54.323,19922,215966,190707,-2524,-0.7727857,-2688,-0.8229984
2023-10-21 23:46:54.323,19923,215993,190721,-1756,-0.5376433,-2718,-0.83218365
2023-10-21 23:46:54.323,19924,216003,190719,-2737,-0.838000975,-2842,-0.87014935
2023-10-21 23:46:54.323,19925,216023,190723,-2839,-0.869230825,-3048,-0.9332214
2023-10-21 23:46:54.323,19926,216056,190743,-1856,-0.5682608,-2969,-0.909033575
2023-10-21 23:46:54.323,19927,216080,190749,-2407,-0.736963225,-2823,-0.864332025
2023-10-21 23:46:54.355,19928,216085,190764,-3028,-0.9270979,-2874,-0.87994695
2023-10-21 23:46:54.355,19929,216125,190763,-2110,-0.64602925,-2882,-0.88239635
2023-10-21 23:46:54.355,19930,216115,190769,-2024,-0.6196982,-2823,-0.864332025
2023-10-21 23:46:54.355,19931,216141,190769,-2808,-0.8597394,-2949,-0.902910075
2023-10-21 23:46:54.355,19932,216151,190786,-2373,-0.726553275,-3082,-0.94363135
2023-10-21 23:46:54.386,19933,216149,190781,-1689,-0.517129575,-3023,-0.925567025
2023-10-21 23:46:54.386,19934,216151,190776,-2643,-0.809220525,-2973,-0.910258275
2023-10-21 23:46:54.386,19935,216125,190747,-2717,-0.831877475,-2981,-0.912707675
2023-10-21 23:46:54.386,19936,216086,190730,-1755,-0.537337125,-2913,-0.891887775
2023-10-21 23:46:54.386,19937,216005,190705,-2309,-0.706958075,-2758,-0.84443065
2023-10-21 23:46:54.386,19938,215933,190667,-2885,-0.883314875,-2765,-0.846573875
2023-10-21 23:46:54.417,19939,215846,190611,-2020,-0.6184735,-2689,-0.823304575
2023-10-21 23:46:54.417,19940,215750,190584,-1820,-0.5572385,-2446,-0.74890405
2023-10-21 23:46:54.417,19941,215638,190540,-2689,-0.823304575,-2417,-0.740024975
2023-10-21 23:46:54.417,19942,215514,190473,-2175,-0.665930625,-2494,-0.76360045
2023-10-21 23:46:54.417,19943,215384,190428,-1377,-0.421602975,-2407,-0.736963225
2023-10-21 23:46:54.417,19944,215246,190362,-2294,-0.70236545,-2418,-0.74033115
2023-10-21 23:46:54.448,19945,215111,190306,-2256,-0.6907308,-2543,-0.778603025
2023-10-21 23:46:54.448,19946,214935,190243,-1324,-0.4053757,-2493,-0.763294275
2023-10-21 23:46:54.448,19947,214788,190171,-1794,-0.54927795,-2434,-0.74522995
2023-10-21 23:46:54.448,19948,214644,190107,-2390,-0.73175825,-2446,-0.74890405
2023-10-21 23:46:54.479,19949,214507,190052,-1547,-0.473652725,-2427,-0.743086725
2023-10-21 23:46:54.479,19950,214360,190000,-1449,-0.443647575,-2393,-0.732676775
2023-10-21 23:46:54.479,19951,214231,189951,-2246,-0.68766905,-2386,-0.73053355
2023-10-21 23:46:54.479,19952,214128,189901,-1779,-0.544685325,-2389,-0.731452075
2023-10-21 23:46:54.479,19953,214026,189865,-1246,-0.38149405,-2371,-0.725940925
2023-10-21 23:46:54.479,19954,213933,189831,-2230,-0.68277025,-2362,-0.72318535
2023-10-21 23:46:54.511,19955,213866,189810,-2113,-0.646947775,-2366,-0.72441005
2023-10-21 23:46:54.511,19956,213796,189759,-1022,-0.31291085,-2350,-0.71951125
2023-10-21 23:46:54.511,19957,213758,189743,-1551,-0.474877425,-2326,-0.71216305
2023-10-21 23:46:54.511,19958,213709,189743,-2190,-0.67052325,-2319,-0.710019825
2023-10-21 23:46:54.511,19959,213673,189722,-1048,-0.3208714,-2301,-0.704508675
2023-10-21 23:46:54.511,19960,213667,189714,-843,-0.258105525,-2240,-0.685832
2023-10-21 23:46:54.541,19961,213634,189706,-1909,-0.584488075,-2149,-0.657970075
2023-10-21 23:46:54.541,19962,213627,189693,-1608,-0.4923294,-2138,-0.65460215
2023-10-21 23:46:54.541,19963,213613,189704,-851,-0.260554925,-1987,-0.608369725
2023-10-21 23:46:54.541,19964,213600,189688,-1746,-0.53458155,-1888,-0.5780584
2023-10-21 23:46:54.541,19965,213592,189684,-1917,-0.586937475,-1948,-0.5964289
2023-10-21 23:46:54.541,19966,213595,189680,-893,-0.273414275,-1897,-0.580813975
2023-10-21 23:46:54.541,19967,213589,189681,-1256,-0.3845558,-1823,-0.558157025
2023-10-21 23:46:54.572,19968,213580,189680,-1819,-0.556932325,-1884,-0.5768337
2023-10-21 23:46:54.572,19969,213576,189671,-876,-0.2682093,-1886,-0.57744605
2023-10-21 23:46:54.572,19970,213565,189653,-890,-0.27249575,-1860,-0.5694855
2023-10-21 23:46:54.572,19971,213535,189654,-1839,-0.563055825,-1854,-0.56764845
2023-10-21 23:46:54.572,19972,213537,189645,-1453,-0.444872275,-1841,-0.563668175
2023-10-21 23:46:54.572,19973,213484,189618,-761,-0.232999175,-1806,-0.55295205
2023-10-21 23:46:54.572,19974,213452,189607,-1657,-0.507331975,-1782,-0.54560385
2023-10-21 23:46:54.603,19975,213433,189583,-1861,-0.569791675,-1775,-0.543460625
2023-10-21 23:46:54.603,19976,213393,189576,-798,-0.24432765,-1744,-0.5339692
2023-10-21 23:46:54.603,19977,213354,189554,-1215,-0.372002625,-1476,-0.4519143
2023-10-21 23:46:54.603,19978,213299,189549,-1780,-0.5449915,-1460,-0.4470155
2023-10-21 23:46:54.603,19979,213264,189511,-972,-0.2976021,-1482,-0.45375135
2023-10-21 23:46:54.603,19980,213230,189509,-846,-0.25902405,-1394,-0.42680795
2023-10-21 23:46:54.634,19981,213169,189479,-1775,-0.543460625,-1457,-0.446096975
2023-10-21 23:46:54.634,19982,213131,189464,-1452,-0.4445661,-1558,-0.47702065
2023-10-21 23:46:54.634,19983,213093,189444,-767,-0.234836225,-1479,-0.452832825
2023-10-21 23:46:54.634,19984,213083,189414,-1552,-0.4751836,-1436,-0.4396673
2023-10-21 23:46:54.635,19985,213042,189423,-1725,-0.528151875,-1443,-0.441810525
2023-10-21 23:46:54.635,19986,213033,189407,-984,-0.3012762,-1411,-0.432012925
2023-10-21 23:46:54.635,19987,213017,189405,-1423,-0.435687025,-1353,-0.414254775
2023-10-21 23:46:54.665,19988,213019,189406,-2108,-0.6454169,-1360,-0.416398
2023-10-21 23:46:54.665,19989,213019,189408,-1211,-0.370777925,-1367,-0.418541225
2023-10-21 23:46:54.665,19990,213041,189407,-1170,-0.35822475,-1334,-0.40843745
2023-10-21 23:46:54.665,19991,213058,189408,-2071,-0.634088425,-1354,-0.41456095
2023-10-21 23:46:54.665,19992,213086,189447,-1604,-0.4911047,-1395,-0.427114125
2023-10-21 23:46:54.665,19993,213107,189425,-1012,-0.3098491,-1344,-0.4114992
2023-10-21 23:46:54.695,19994,213121,189447,-1885,-0.577139875,-1329,-0.406906575
2023-10-21 23:46:54.695,19995,213142,189457,-2028,-0.6209229,-1329,-0.406906575
2023-10-21 23:46:54.695,19996,213151,189450,-1196,-0.3661853,-1316,-0.4029263
2023-10-21 23:46:54.695,19997,213167,189464,-1617,-0.495084975,-1304,-0.3992522
2023-10-21 23:46:54.695,19998,213175,189462,-2288,-0.7005284,-1315,-0.402620125
2023-10-21 23:46:54.727,19999,213199,189461,-1498,-0.45865015,-1320,-0.404151
2023-10-21 23:46:54.727,20000,213201,189473,-1353,-0.414254775,-1310,-0.40108925
2023-10-21 23:46:54.727,20001,213215,189474,-2467,-0.755333725,-1315,-0.402620125
2023-10-21 23:46:54.727,20002,213220,189473,-1914,-0.58601895,-1322,-0.40476335
2023-10-21 23:46:54.727,20003,213222,189457,-1146,-0.35087655,-1310,-0.40108925
2023-10-21 23:46:54.727,20004,213231,189474,-2129,-0.651846575,-1312,-0.4017016
2023-10-21 23:46:54.727,20005,213224,189481,-2226,-0.68154555,-1342,-0.41088685
2023-10-21 23:46:54.756,20006,213234,189464,-1224,-0.3747582,-1390,-0.42558325
2023-10-21 23:46:54.756,20007,213217,189461,-1760,-0.538868,-1387,-0.424664725
2023-10-21 23:46:54.756,20008,213226,189476,-2456,-0.7519658,-1445,-0.442422875
2023-10-21 23:46:54.756,20009,213234,189472,-1648,-0.5045764,-1501,-0.459568675
2023-10-21 23:46:54.756,20010,213209,189446,-1589,-0.486512075,-1467,-0.449158725
2023-10-21 23:46:54.756,20011,213206,189458,-2585,-0.791462375,-1482,-0.45375135
2023-10-21 23:46:54.787,20012,213214,189459,-2134,-0.65337745,-1516,-0.4641613
2023-10-21 23:46:54.787,20013,213203,189451,-1478,-0.45252665,-1532,-0.4690601
2023-10-21 23:46:54.787,20014,213198,189452,-2443,-0.747985525,-1555,-0.476102125
2023-10-21 23:46:54.787,20015,213212,189450,-2730,-0.83585775,-1591,-0.487124425
2023-10-21 23:46:54.787,20016,213199,189450,-1731,-0.529988925,-1615,-0.494472625
2023-10-21 23:46:54.818,20017,213216,189446,-2099,-0.642661325,-1627,-0.498146725
2023-10-21 23:46:54.818,20018,213231,189443,-3002,-0.91913735,-1671,-0.511618425
2023-10-21 23:46:54.818,20019,213219,189443,-2154,-0.65950095,-1752,-0.5364186
2023-10-21 23:46:54.818,20020,213248,189453,-2030,-0.62153525,-1712,-0.5241716
2023-10-21 23:46:54.818,20021,213238,189453,-2983,-0.913320025,-1733,-0.530601275
2023-10-21 23:46:54.818,20022,213270,189470,-2616,-0.8009538,-1766,-0.54070505
2023-10-21 23:46:54.850,20023,213314,189481,-1829,-0.559994075,-1771,-0.542235925
2023-10-21 23:46:54.850,20024,213334,189502,-2813,-0.861270275,-1784,-0.5462162
2023-10-21 23:46:54.850,20025,213405,189532,-2985,-0.913932375,-1810,-0.55417675
2023-10-21 23:46:54.850,20026,213458,189560,-1887,-0.577752225,-1818,-0.55662615
2023-10-21 23:46:54.850,20027,213514,189570,-2301,-0.704508675,-1824,-0.5584632
2023-10-21 23:46:54.850,20028,213578,189607,-3226,-0.98772055,-1854,-0.56764845
2023-10-21 23:46:54.881,20029,213637,189621,-2572,-0.7874821,-1913,-0.585712775
2023-10-21 23:46:54.881,20030,213684,189641,-2347,-0.718592725,-1915,-0.586325125
2023-10-21 23:46:54.881,20031,213736,189656,-3080,-0.943019,-1978,-0.60561415
2023-10-21 23:46:54.881,20032,213809,189687,-2701,-0.826978675,-2143,-0.656133025
2023-10-21 23:46:54.881,20033,213836,189702,-1972,-0.6037771,-2121,-0.649397175
2023-10-21 23:46:54.881,20034,213887,189702,-2899,-0.887601325,-2120,-0.649091
2023-10-21 23:46:54.881,20035,213887,189718,-2983,-0.913320025,-2269,-0.694711075
2023-10-21 23:46:54.912,20036,213913,189718,-1904,-0.5829572,-2316,-0.7091013
2023-10-21 23:46:54.912,20037,213939,189719,-2496,-0.7642128,-2281,-0.698385175
2023-10-21 23:46:54.912,20038,213944,189723,-3041,-0.931078175,-2379,-0.728390325
2023-10-21 23:46:54.912,20039,213945,189728,-2245,-0.687362875,-2441,-0.747373175
2023-10-21 23:46:54.912,20040,213972,189734,-2065,-0.632251375,-2365,-0.724103875
2023-10-21 23:46:54.912,20041,213969,189739,-3001,-0.918831175,-2407,-0.736963225
2023-10-21 23:46:54.912,20042,214014,189750,-2689,-0.823304575,-2486,-0.76115105
2023-10-21 23:46:54.946,20043,214004,189751,-1853,-0.567342275,-2434,-0.74522995
2023-10-21 23:46:54.946,20044,214036,189763,-2702,-0.82728485,-2425,-0.742474375
2023-10-21 23:46:54.946,20045,214048,189776,-2980,-0.9124015,-2466,-0.75502755
2023-10-21 23:46:54.946,20046,214091,189802,-1989,-0.608982075,-2492,-0.7629881
2023-10-21 23:46:54.946,20047,214131,189802,-2536,-0.7764598,-2510,-0.76849925
2023-10-21 23:46:54.946,20048,214160,189830,-3269,-1.000886075,-2544,-0.7789092
2023-10-21 23:46:54.976,20049,214205,189857,-2519,-0.771254825,-2589,-0.792687075
2023-10-21 23:46:54.976,20050,214248,189877,-2381,-0.729002675,-2572,-0.7874821
2023-10-21 23:46:54.976,20051,214300,189892,-3388,-1.0373209,-2590,-0.79299325
2023-10-21 23:46:54.976,20052,214351,189908,-3077,-0.942100475,-2608,-0.7985044
2023-10-21 23:46:54.976,20053,214388,189933,-2305,-0.705733375,-2596,-0.7948303
2023-10-21 23:46:54.976,20054,214416,189959,-3188,-0.9760859,-2578,-0.78931915
2023-10-21 23:46:54.976,20055,214472,189976,-3361,-1.029054175,-2606,-0.79789205
2023-10-21 23:46:55.006,20056,214504,189987,-2512,-0.7691116,-2600,-0.796055
2023-10-21 23:46:55.006,20057,214533,189991,-3024,-0.9258732,-2581,-0.790237675
2023-10-21 23:46:55.006,20058,214563,190011,-3842,-1.17632435,-2575,-0.788400625
2023-10-21 23:46:55.006,20059,214601,190029,-3066,-0.93873255,-2564,-0.7850327
2023-10-21 23:46:55.006,20060,214625,190016,-2802,-0.85790235,-2536,-0.7764598
2023-10-21 23:46:55.006,20061,214624,190040,-3661,-1.120906675,-2523,-0.772479525
2023-10-21 23:46:55.037,20062,214648,190051,-3160,-0.967513,-2519,-0.771254825
2023-10-21 23:46:55.037,20063,214650,190037,-2407,-0.736963225,-2503,-0.766356025
2023-10-21 23:46:55.037,20064,214677,190043,-3352,-1.0262986,-2505,-0.766968375
2023-10-21 23:46:55.037,20065,214690,190048,-3431,-1.050486425,-2529,-0.774316575
2023-10-21 23:46:55.037,20066,214707,190074,-2317,-0.709407475,-2542,-0.77829685
2023-10-21 23:46:55.069,20067,214729,190050,-2618,-0.80156615,-2554,-0.78197095
2023-10-21 23:46:55.069,20068,214753,190084,-3532,-1.0814101,-2680,-0.820549
2023-10-21 23:46:55.069,20069,214806,190082,-2729,-0.835551575,-2837,-0.868618475
2023-10-21 23:46:55.069,20070,214801,190095,-2386,-0.73053355,-2798,-0.85667765
2023-10-21 23:46:55.069,20071,214850,190114,-3424,-1.0483432,-2850,-0.87259875
2023-10-21 23:46:55.069,20072,214872,190128,-3083,-0.943937525,-2949,-0.902910075
2023-10-21 23:46:55.069,20073,214894,190145,-2353,-0.720429775,-2900,-0.8879075
2023-10-21 23:46:55.100,20074,214934,190163,-3195,-0.978229125,-2918,-0.89341865
2023-10-21 23:46:55.100,20075,214952,190166,-3517,-1.076817475,-3074,-0.94118195
2023-10-21 23:46:55.100,20076,214989,190173,-2419,-0.740637325,-3138,-0.96077715
2023-10-21 23:46:55.100,20077,215030,190198,-2928,-0.8964804,-3102,-0.94975485
2023-10-21 23:46:55.100,20078,215035,190212,-3672,-1.1242746,-3167,-0.969656225
2023-10-21 23:46:55.100,20079,215085,190225,-2822,-0.86402585,-3176,-0.9724118
2023-10-21 23:46:55.131,20080,215095,190229,-2517,-0.770642475,-3074,-0.94118195
2023-10-21 23:46:55.131,20081,215091,190234,-3513,-1.075592775,-3089,-0.945774575
2023-10-21 23:46:55.131,20082,215114,190249,-3305,-1.011908375,-3117,-0.954347475
2023-10-21 23:46:55.131,20083,215147,190242,-2540,-0.7776845,-3021,-0.924954675
2023-10-21 23:46:55.131,20084,215166,190243,-3125,-0.956796875,-2910,-0.89096925
2023-10-21 23:46:55.131,20085,215182,190262,-3521,-1.078042175,-3003,-0.919443525
2023-10-21 23:46:55.131,20086,215197,190268,-2697,-0.825753975,-2994,-0.91668795
2023-10-21 23:46:55.131,20087,215217,190264,-2963,-0.907196525,-2903,-0.888826025
2023-10-21 23:46:55.161,20088,215231,190266,-3635,-1.112946125,-2952,-0.9038286
2023-10-21 23:46:55.161,20089,215242,190286,-2873,-0.879640775,-2972,-0.9099521
2023-10-21 23:46:55.161,20090,215273,190282,-2547,-0.779827725,-2939,-0.899848325
2023-10-21 23:46:55.161,20091,215300,190291,-3521,-1.078042175,-2928,-0.8964804
2023-10-21 23:46:55.161,20092,215300,190285,-3190,-0.97669825,-2931,-0.897398925
2023-10-21 23:46:55.161,20093,215344,190304,-2648,-0.8107514,-2922,-0.89464335
2023-10-21 23:46:55.161,20094,215353,190314,-3822,-1.17020085,-2928,-0.8964804
2023-10-21 23:46:55.193,20095,215362,190318,-4243,-1.299100525,-2958,-0.90566565
2023-10-21 23:46:55.193,20096,215379,190306,-3323,-1.017419525,-2970,-0.90933975
2023-10-21 23:46:55.193,20097,215401,190328,-3984,-1.2198012,-2970,-0.90933975
2023-10-21 23:46:55.193,20098,215403,190333,-4804,-1.4708647,-2991,-0.915769425
2023-10-21 23:46:55.193,20099,215425,190348,-3695,-1.131316625,-3013,-0.922505275
2023-10-21 23:46:55.224,20100,215439,190338,-2718,-0.83218365,-3019,-0.924342325
2023-10-21 23:46:55.224,20101,215469,190347,-3127,-0.957409225,-3035,-0.929241125
2023-10-21 23:46:55.224,20102,215477,190370,-2735,-0.837388625,-3052,-0.9344461
2023-10-21 23:46:55.224,20103,215500,190374,-1948,-0.5964289,-3049,-0.933527575
2023-10-21 23:46:55.224,20104,215508,190371,-3028,-0.9270979,-3054,-0.93505845
2023-10-21 23:46:55.224,20105,215508,190378,-3305,-1.011908375,-3074,-0.94118195
2023-10-21 23:46:55.224,20106,215550,190382,-2319,-0.710019825,-3075,-0.941488125
2023-10-21 23:46:55.256,20107,215557,190379,-2607,-0.798198225,-3067,-0.939038725
2023-10-21 23:46:55.256,20108,215558,190378,-3310,-1.01343925,-3079,-0.942712825
2023-10-21 23:46:55.256,20109,215567,190382,-2590,-0.79299325,-3085,-0.944549875
2023-10-21 23:46:55.256,20110,215590,190391,-2419,-0.740637325,-3076,-0.9417943
2023-10-21 23:46:55.256,20111,215606,190398,-3498,-1.07100015,-3097,-0.948223975
2023-10-21 23:46:55.256,20112,215614,190411,-3148,-0.9638389,-3401,-1.041301175
2023-10-21 23:46:55.286,20113,215647,190415,-2186,-0.66929855,-3565,-1.091513875
2023-10-21 23:46:55.286,20114,215638,190419,-3106,-0.95097955,-3770,-1.15427975
2023-10-21 23:46:55.286,20115,215653,190423,-3555,-1.088452125,-4112,-1.2589916
2023-10-21 23:46:55.286,20116,215695,190424,-2655,-0.812894625,-4084,-1.2504187
2023-10-21 23:46:55.286,20117,215719,190428,-3026,-0.92648555,-3695,-1.131316625
2023-10-21 23:46:55.318,20118,215720,190444,-3786,-1.15917855,-3377,-1.033952975
2023-10-21 23:46:55.318,20119,215737,190451,-3059,-0.936589325,-3053,-0.934752275
2023-10-21 23:46:55.318,20120,215768,190455,-2731,-0.836163925,-2664,-0.8156502
2023-10-21 23:46:55.318,20121,215779,190447,-3704,-1.1340722,-2584,-0.7911562
2023-10-21 23:46:55.318,20122,215796,190477,-3536,-1.0826348,-2685,-0.822079875
2023-10-21 23:46:55.318,20123,215814,190477,-2800,-0.85729,-2631,-0.805546425
2023-10-21 23:46:55.318,20124,215837,190487,-3637,-1.113558475,-2679,-0.820242825
2023-10-21 23:46:55.348,20125,215867,190500,-3872,-1.1855096,-2913,-0.891887775
2023-10-21 23:46:55.348,20126,215894,190508,-2888,-0.8842334,-2941,-0.900460675
2023-10-21 23:46:55.348,20127,215934,190531,-3140,-0.9613895,-2835,-0.868006125
2023-10-21 23:46:55.348,20128,215949,190528,-3961,-1.212759175,-2893,-0.885764275
2023-10-21 23:46:55.348,20129,215939,190531,-3089,-0.945774575,-2864,-0.8768852
2023-10-21 23:46:55.348,20130,215953,190533,-2684,-0.8217737,-2760,-0.845043
2023-10-21 23:46:55.379,20131,215981,190538,-3706,-1.13468455,-2820,-0.8634135
2023-10-21 23:46:55.379,20132,215986,190544,-3351,-1.025992425,-2988,-0.9148509
2023-10-21 23:46:55.379,20133,216011,190539,-2454,-0.75135345,-3018,-0.92403615
2023-10-21 23:46:55.379,20134,216011,190542,-3337,-1.021705975,-2998,-0.91791265
2023-10-21 23:46:55.379,20135,216004,190547,-3740,-1.1450945,-3071,-0.940263425
2023-10-21 23:46:55.411,20136,215982,190521,-2923,-0.894949525,-3090,-0.94608075
2023-10-21 23:46:55.411,20137,215944,190499,-3294,-1.00854045,-3066,-0.93873255
2023-10-21 23:46:55.411,20138,215887,190478,-4048,-1.2393964,-3197,-0.978841475
2023-10-21 23:46:55.411,20139,215812,190439,-3352,-1.0262986,-3327,-1.018644225
2023-10-21 23:46:55.411,20140,215739,190419,-3033,-0.928628775,-3266,-0.99996755
2023-10-21 23:46:55.411,20141,215646,190360,-4109,-1.258073075,-3274,-1.00241695
2023-10-21 23:46:55.442,20142,215534,190311,-3886,-1.18979605,-3318,-1.01588865
2023-10-21 23:46:55.442,20143,215433,190261,-3061,-0.937201675,-3290,-1.00731575
2023-10-21 23:46:55.442,20144,215330,190216,-3749,-1.147850075,-3288,-1.0067034
2023-10-21 23:46:55.442,20145,215209,190177,-4327,-1.324819225,-3343,-1.023543025
2023-10-21 23:46:55.442,20146,215080,190116,-3545,-1.085390375,-3342,-1.02323685
2023-10-21 23:46:55.442,20147,214946,190059,-3765,-1.152748875,-3327,-1.018644225
2023-10-21 23:46:55.472,20148,214820,190024,-4409,-1.349925575,-3346,-1.02446155
2023-10-21 23:46:55.472,20149,214714,189958,-3778,-1.15672915,-3341,-1.022930675
2023-10-21 23:46:55.472,20150,214578,189905,-3545,-1.085390375,-3252,-0.9956811
2023-10-21 23:46:55.472,20151,214476,189870,-4391,-1.344414425,-3219,-0.985577325
2023-10-21 23:46:55.472,20152,214362,189817,-4074,-1.24735695,-3283,-1.005172525
2023-10-21 23:46:55.472,20153,214255,189768,-3131,-0.958633925,-3264,-0.9993552
2023-10-21 23:46:55.472,20154,214176,189731,-3874,-1.18612195,-3264,-0.9993552
2023-10-21 23:46:55.503,20155,214095,189706,-4236,-1.2969573,-3356,-1.0275233
2023-10-21 23:46:55.503,20156,214022,189679,-3254,-0.99629345,-3389,-1.037627075
2023-10-21 23:46:55.503,20157,213969,189655,-3423,-1.048037025,-3375,-1.033340625
2023-10-21 23:46:55.503,20158,213938,189647,-3995,-1.223169125,-3522,-1.07834835
2023-10-21 23:46:55.503,20159,213928,189636,-3114,-0.95342895,-3637,-1.113558475
2023-10-21 23:46:55.503,20160,213890,189620,-2597,-0.795136475,-3538,-1.08324715
2023-10-21 23:46:55.503,20161,213874,189619,-3469,-1.062121075,-3555,-1.088452125
2023-10-21 23:46:55.536,20162,213891,189617,-3146,-0.96322655,-3703,-1.133766025
2023-10-21 23:46:55.536,20163,213878,189609,-2434,-0.74522995,-3747,-1.147237725
2023-10-21 23:46:55.536,20164,213864,189612,-3073,-0.940875775,-3766,-1.15305505
2023-10-21 23:46:55.536,20165,213880,189608,-3451,-1.056609925,-3869,-1.184591075
2023-10-21 23:46:55.536,20166,213867,189624,-2620,-0.8021785,-3884,-1.1891837
2023-10-21 23:46:55.536,20167,213892,189611,-2626,-0.80401555,-3840,-1.175712
2023-10-21 23:46:55.565,20168,213880,189618,-3507,-1.073755725,-3911,-1.197450425
2023-10-21 23:46:55.565,20169,213890,189626,-2956,-0.9050533,-3938,-1.20571715
2023-10-21 23:46:55.565,20170,213912,189629,-2570,-0.78686975,-3824,-1.1708132
2023-10-21 23:46:55.565,20171,213907,189631,-3402,-1.04160735,-3827,-1.171731725
2023-10-21 23:46:55.565,20172,213893,189627,-3282,-1.00486635,-3884,-1.1891837
2023-10-21 23:46:55.565,20173,213887,189614,-2564,-0.7850327,-3872,-1.1855096
2023-10-21 23:46:55.565,20174,213866,189614,-3220,-0.9858835,-3749,-1.147850075
2023-10-21 23:46:55.596,20175,213866,189619,-3697,-1.131928975,-3732,-1.1426451
2023-10-21 23:46:55.596,20176,213863,189602,-2935,-0.898623625,-3594,-1.10039295
2023-10-21 23:46:55.596,20177,213828,189598,-3313,-1.014357775,-3319,-1.016194825
2023-10-21 23:46:55.596,20178,213829,189574,-3993,-1.222556775,-3237,-0.991088475
2023-10-21 23:46:55.596,20179,213814,189590,-3048,-0.9332214,-3165,-0.969043875
2023-10-21 23:46:55.596,20180,213777,189553,-2589,-0.792687075,-2961,-0.906584175
2023-10-21 23:46:55.627,20181,213762,189540,-3616,-1.1071288,-2929,-0.896786575
2023-10-21 23:46:55.627,20182,213751,189543,-3455,-1.057834625,-3044,-0.9319967
2023-10-21 23:46:55.627,20183,213745,189532,-2667,-0.816568725,-2994,-0.91668795
2023-10-21 23:46:55.627,20184,213709,189526,-3247,-0.994150225,-2937,-0.899235975
2023-10-21 23:46:55.627,20185,213721,189517,-3558,-1.08937065,-3045,-0.932302875
2023-10-21 23:46:55.658,20186,213701,189525,-2609,-0.798810575,-3050,-0.93383375
2023-10-21 23:46:55.658,20187,213719,189522,-2837,-0.868618475,-3003,-0.919443525
2023-10-21 23:46:55.658,20188,213723,189538,-3673,-1.124580775,-2996,-0.9173003
2023-10-21 23:46:55.658,20189,213763,189542,-2989,-0.915157075,-2990,-0.91546325
2023-10-21 23:46:55.658,20190,213773,189554,-2696,-0.8254478,-2983,-0.913320025
2023-10-21 23:46:55.658,20191,213827,189567,-3531,-1.081103925,-2999,-0.918218825
2023-10-21 23:46:55.658,20192,213831,189578,-3442,-1.05385435,-3032,-0.9283226
2023-10-21 23:46:55.689,20193,213871,189591,-2553,-0.781664775,-3075,-0.941488125
2023-10-21 23:46:55.689,20194,213881,189605,-3209,-0.982515575,-3140,-0.9613895
2023-10-21 23:46:55.689,20195,213941,189622,-3561,-1.090289175,-3305,-1.011908375
2023-10-21 23:46:55.689,20196,213948,189628,-2729,-0.835551575,-3307,-1.012520725
2023-10-21 23:46:55.689,20197,213977,189630,-2860,-0.8756605,-3197,-0.978841475
2023-10-21 23:46:55.689,20198,214008,189661,-3522,-1.07834835,-3235,-0.990476125
2023-10-21 23:46:55.720,20199,214015,189656,-3020,-0.9246485,-3260,-0.9981305
2023-10-21 23:46:55.720,20200,214037,189668,-2733,-0.836776275,-3201,-0.980066175
2023-10-21 23:46:55.720,20201,214071,189684,-3544,-1.0850842,-3208,-0.9822094
2023-10-21 23:46:55.720,20202,214099,189687,-3355,-1.027217125,-3244,-0.9932317
2023-10-21 23:46:55.720,20203,214107,189697,-2666,-0.81626255,-3199,-0.979453825
2023-10-21 23:46:55.720,20204,214121,189694,-3476,-1.0642643,-3153,-0.965369775
2023-10-21 23:46:55.720,20205,214131,189708,-3706,-1.13468455,-3201,-0.980066175
2023-10-21 23:46:55.720,20206,214158,189705,-2891,-0.885151925,-3183,-0.974555025
2023-10-21 23:46:55.750,20207,214157,189706,-3132,-0.9589401,-3148,-0.9638389
2023-10-21 23:46:55.750,20208,214175,189717,-3624,-1.1095782,-3139,-0.961083325
2023-10-21 23:46:55.750,20209,214188,189726,-2998,-0.91791265,-3134,-0.95955245
2023-10-21 23:46:55.750,20210,214207,189721,-2728,-0.8352454,-3118,-0.95465365
2023-10-21 23:46:55.750,20211,214201,189713,-3636,-1.1132523,-3120,-0.955266
2023-10-21 23:46:55.750,20212,214227,189728,-3455,-1.057834625,-3133,-0.959246275
2023-10-21 23:46:55.750,20213,214236,189742,-2587,-0.792074725,-3128,-0.9577154
2023-10-21 23:46:55.780,20214,214258,189747,-3191,-0.977004425,-3120,-0.955266
2023-10-21 23:46:55.780,20215,214273,189749,-3579,-1.095800325,-3125,-0.956796875
2023-10-21 23:46:55.780,20216,214291,189759,-2679,-0.820242825,-3118,-0.95465365
2023-10-21 23:46:55.780,20217,214320,189771,-2769,-0.847798575,-3109,-0.951898075
2023-10-21 23:46:55.780,20218,214334,189768,-3600,-1.10223,-3124,-0.9564907
2023-10-21 23:46:55.811,20219,214381,189787,-3043,-0.931690525,-3136,-0.9601648
2023-10-21 23:46:55.811,20220,214410,189813,-2594,-0.79421795,-3128,-0.9577154
2023-10-21 23:46:55.811,20221,214403,189811,-3356,-1.0275233,-3135,-0.959858625
2023-10-21 23:46:55.842,20222,214450,189833,-3324,-1.0177257,-3153,-0.965369775
2023-10-21 23:46:55.842,20223,214466,189847,-2642,-0.80891435,-3158,-0.96690065
2023-10-21 23:46:55.842,20224,214512,189862,-3229,-0.988639075,-3169,-0.970268575
2023-10-21 23:46:55.842,20225,214535,189870,-3652,-1.1181511,-3198,-0.97914765
2023-10-21 23:46:55.842,20226,214571,189883,-2847,-0.871680225,-3211,-0.983127925
2023-10-21 23:46:55.842,20227,214599,189910,-2991,-0.915769425,-3211,-0.983127925
2023-10-21 23:46:55.874,20228,214631,189904,-3870,-1.18489725,-3225,-0.987414375
2023-10-21 23:46:55.874,20229,214671,189937,-3199,-0.979453825,-3233,-0.989863775
2023-10-21 23:46:55.874,20230,214692,189950,-2954,-0.90444095,-3221,-0.986189675
2023-10-21 23:46:55.874,20231,214710,189959,-3820,-1.1695885,-3218,-0.98527115
2023-10-21 23:46:55.874,20232,214738,189954,-3735,-1.143563625,-3220,-0.9858835
2023-10-21 23:46:55.874,20233,214765,189963,-3054,-0.93505845,-3200,-0.97976
2023-10-21 23:46:55.906,20234,214786,189981,-3783,-1.158260025,-3175,-0.972105625
2023-10-21 23:46:55.906,20235,214809,189990,-4222,-1.29267085,-3164,-0.9687377
2023-10-21 23:46:55.906,20236,214824,189990,-3316,-1.0152763,-3144,-0.9626142
2023-10-21 23:46:55.906,20237,214841,189994,-3480,-1.065489,-3120,-0.955266
2023-10-21 23:46:55.906,20238,214844,189982,-4219,-1.291752325,-3114,-0.95342895
2023-10-21 23:46:55.906,20239,214857,190000,-3516,-1.0765113,-3109,-0.951898075
2023-10-21 23:46:55.906,20240,214881,190003,-3051,-0.934139925,-3092,-0.9466931
2023-10-21 23:46:55.938,20241,214887,190008,-3958,-1.21184065,-3092,-0.9466931
2023-10-21 23:46:55.938,20242,214905,190015,-3967,-1.214596225,-3104,-0.9503672
2023-10-21 23:46:55.938,20243,214918,190029,-3128,-0.9577154,-3100,-0.9491425
2023-10-21 23:46:55.938,20244,214912,190033,-3675,-1.125193125,-3101,-0.949448675
2023-10-21 23:46:55.938,20245,214927,190020,-3951,-1.209697425,-3128,-0.9577154
2023-10-21 23:46:55.938,20246,214945,190033,-3054,-0.93505845,-3187,-0.975779725
2023-10-21 23:46:55.938,20247,214954,190028,-3247,-0.994150225,-3204,-0.9809847
2023-10-21 23:46:55.969,20248,214959,190037,-4106,-1.25715455,-3273,-1.002110775
2023-10-21 23:46:55.969,20249,214979,190032,-3617,-1.107434975,-3379,-1.034565325
2023-10-21 23:46:55.969,20250,214987,190034,-3064,-0.9381202,-3372,-1.0324221
2023-10-21 23:46:55.969,20251,215004,190044,-4052,-1.2406211,-3447,-1.055385225
2023-10-21 23:46:55.969,20252,215011,190057,-3994,-1.22286295,-3631,-1.111721425
2023-10-21 23:46:55.999,20253,215005,190053,-3278,-1.00364165,-3642,-1.11508935
2023-10-21 23:46:55.999,20254,215016,190056,-3868,-1.1842849,-3617,-1.107434975
2023-10-21 23:46:55.999,20255,215054,190047,-4312,-1.3202266,-3702,-1.13345985
2023-10-21 23:46:55.999,20256,215042,190058,-3313,-1.014357775,-3673,-1.124580775
2023-10-21 23:46:55.999,20257,215057,190067,-3388,-1.0373209,-3567,-1.092126225
2023-10-21 23:46:55.999,20258,215072,190064,-4220,-1.2920585,-3610,-1.10529175
2023-10-21 23:46:55.999,20259,215086,190078,-3737,-1.144175975,-3643,-1.115395525
2023-10-21 23:46:56.030,20260,215089,190078,-3334,-1.02078745,-3645,-1.116007875
2023-10-21 23:46:56.030,20261,215097,190057,-4307,-1.318695725,-3656,-1.1193758
2023-10-21 23:46:56.030,20262,215104,190070,-4257,-1.303386975,-3666,-1.12243755
2023-10-21 23:46:56.030,20263,215127,190087,-3416,-1.0458938,-3647,-1.116620225
2023-10-21 23:46:56.030,20264,215138,190082,-4101,-1.255623675,-3623,-1.109272025
2023-10-21 23:46:56.030,20265,215156,190093,-4427,-1.355436725,-3614,-1.10651645
2023-10-21 23:46:56.061,20266,215190,190099,-3365,-1.030278875,-3596,-1.1010053
2023-10-21 23:46:56.061,20267,215167,190102,-3453,-1.057222275,-3574,-1.09426945
2023-10-21 23:46:56.061,20268,215206,190104,-4094,-1.25348045,-3580,-1.0961065
2023-10-21 23:46:56.061,20269,215218,190115,-3441,-1.053548175,-3595,-1.100699125
2023-10-21 23:46:56.061,20270,215230,190120,-3024,-0.9258732,-3600,-1.10223
2023-10-21 23:46:56.061,20271,215240,190121,-3953,-1.210309775,-3631,-1.111721425
2023-10-21 23:46:56.061,20272,215239,190135,-3667,-1.122743725,-3741,-1.145400675
2023-10-21 23:46:56.061,20273,215275,190137,-2692,-0.8242231,-3699,-1.132541325
2023-10-21 23:46:56.106,20274,215301,190142,-3347,-1.024767725,-3654,-1.11876345
2023-10-21 23:46:56.106,20275,215289,190148,-3725,-1.140501875,-3705,-1.134378375
2023-10-21 23:46:56.106,20276,215315,190140,-2920,-0.894031,-3725,-1.140501875
2023-10-21 23:46:56.106,20277,215309,190146,-3129,-0.958021575,-3722,-1.13958335
2023-10-21 23:46:56.106,20278,215324,190160,-3742,-1.14570685,-3754,-1.14938095
2023-10-21 23:46:56.106,20279,215336,190149,-3122,-0.95587835,-3786,-1.15917855
2023-10-21 23:46:56.106,20280,215353,190165,-2742,-0.83953185,-3797,-1.162546475
2023-10-21 23:46:56.137,20281,215379,190167,-3690,-1.12978575,-3818,-1.16897615
2023-10-21 23:46:56.137,20282,215377,190157,-3754,-1.14938095,-3930,-1.20326775
2023-10-21 23:46:56.137,20283,215382,190169,-3177,-0.972717975,-3885,-1.189489875
2023-10-21 23:46:56.137,20284,215415,190163,-3860,-1.1818355,-3817,-1.168669975
2023-10-21 23:46:56.137,20285,215418,190163,-4643,-1.421570525,-3838,-1.17509965
2023-10-21 23:46:56.137,20286,215444,190182,-4038,-1.23633465,-3764,-1.1524427
2023-10-21 23:46:56.169,20287,215463,190184,-4261,-1.304611675,-3579,-1.095800325
2023-10-21 23:46:56.169,20288,215481,190197,-4824,-1.4769882,-3597,-1.101311475
2023-10-21 23:46:56.169,20289,215494,190215,-3595,-1.100699125,-3603,-1.103148525
2023-10-21 23:46:56.169,20290,215522,190202,-2419,-0.740637325,-3419,-1.046812325
2023-10-21 23:46:56.169,20291,215537,190213,-2897,-0.886988975,-3351,-1.025992425
2023-10-21 23:46:56.169,20292,215558,190226,-2856,-0.8744358,-3410,-1.04405675
2023-10-21 23:46:56.169,20293,215566,190243,-2070,-0.63378225,-3339,-1.022318325
2023-10-21 23:46:56.169,20294,215598,190239,-2819,-0.863107325,-3288,-1.0067034
2023-10-21 23:46:56.200,20295,215595,190246,-3428,-1.0495679,-3352,-1.0262986
2023-10-21 23:46:56.200,20296,215629,190257,-2492,-0.7629881,-3341,-1.022930675
2023-10-21 23:46:56.200,20297,215648,190253,-2765,-0.846573875,-3301,-1.010683675
2023-10-21 23:46:56.200,20298,215668,190260,-3526,-1.07957305,-3325,-1.018031875
2023-10-21 23:46:56.200,20299,215695,190278,-3017,-0.923729975,-3331,-1.019868925
2023-10-21 23:46:56.200,20300,215690,190284,-2717,-0.831877475,-3316,-1.0152763
2023-10-21 23:46:56.231,20301,215731,190302,-3620,-1.1083535,-3403,-1.041913525
2023-10-21 23:46:56.231,20302,215732,190295,-3607,-1.104373225,-3794,-1.16162795
2023-10-21 23:46:56.231,20303,215772,190308,-2947,-0.902297725,-4045,-1.238477875
2023-10-21 23:46:56.231,20304,215804,190323,-3569,-1.092738575,-4231,-1.295426425
2023-10-21 23:46:56.231,20305,215818,190333,-3842,-1.17632435,-4415,-1.351762625
2023-10-21 23:46:56.231,20306,215849,190336,-2887,-0.883927225,-4199,-1.285628825
2023-10-21 23:46:56.231,20307,215890,190358,-3080,-0.943019,-3645,-1.116007875
2023-10-21 23:46:56.231,20308,215898,190367,-3905,-1.195613375,-3241,-0.992313175
2023-10-21 23:46:56.263,20309,215942,190385,-3337,-1.021705975,-2935,-0.898623625
2023-10-21 23:46:56.263,20310,215970,190394,-2814,-0.86157645,-2566,-0.78564505
2023-10-21 23:46:56.263,20311,216007,190408,-3744,-1.1463192,-2472,-0.7568646
2023-10-21 23:46:56.263,20312,216041,190432,-3779,-1.157035325,-2646,-0.81013905
2023-10-21 23:46:56.263,20313,216065,190440,-3007,-0.920668225,-2728,-0.8352454
2023-10-21 23:46:56.263,20314,216085,190454,-3684,-1.1279487,-2865,-0.877191375
2023-10-21 23:46:56.263,20315,216117,190455,-4263,-1.305224025,-3143,-0.962308025
2023-10-21 23:46:56.294,20316,216143,190458,-3575,-1.094575625,-3200,-0.97976
2023-10-21 23:46:56.295,20317,216163,190479,-3698,-1.13223515,-3072,-0.9405696
2023-10-21 23:46:56.295,20318,216190,190488,-4453,-1.363397275,-3107,-0.951285725
2023-10-21 23:46:56.295,20319,216226,190491,-3723,-1.139889525,-3207,-0.981903225
2023-10-21 23:46:56.295,20320,216240,190504,-3293,-1.008234275,-3229,-0.988639075
2023-10-21 23:46:56.324,20321,216269,190515,-4049,-1.239702575,-3371,-1.032115925
2023-10-21 23:46:56.324,20322,216299,190538,-4135,-1.266033625,-3525,-1.079266875
2023-10-21 23:46:56.324,20323,216326,190539,-3424,-1.0483432,-3415,-1.045587625
2023-10-21 23:46:56.324,20324,216350,190535,-3922,-1.20081835,-3294,-1.00854045
2023-10-21 23:46:56.324,20325,216370,190563,-4261,-1.304611675,-3339,-1.022318325
2023-10-21 23:46:56.324,20326,216391,190572,-3421,-1.047424675,-3331,-1.019868925
2023-10-21 23:46:56.324,20327,216420,190581,-3599,-1.101923825,-3278,-1.00364165
2023-10-21 23:46:56.324,20328,216428,190583,-4537,-1.389115975,-3349,-1.025380075
2023-10-21 23:46:56.355,20329,216441,190578,-4009,-1.227455575,-3401,-1.041301175
2023-10-21 23:46:56.355,20330,216398,190569,-3484,-1.0667137,-3405,-1.042525875
2023-10-21 23:46:56.355,20331,216355,190533,-4444,-1.3606417,-3424,-1.0483432
2023-10-21 23:46:56.355,20332,216282,190505,-4443,-1.360335525,-3563,-1.090901525
2023-10-21 23:46:56.355,20333,216197,190464,-3725,-1.140501875,-3630,-1.11141525
2023-10-21 23:46:56.355,20334,216109,190440,-4238,-1.29756965,-3702,-1.13345985
2023-10-21 23:46:56.387,20335,215999,190390,-4664,-1.4280002,-3892,-1.1916331
2023-10-21 23:46:56.387,20336,215885,190326,-3797,-1.162546475,-3922,-1.20081835
2023-10-21 23:46:56.387,20337,215778,190280,-3944,-1.2075542,-3794,-1.16162795
2023-10-21 23:46:56.387,20338,215691,190245,-4719,-1.444839825,-3803,-1.164383525
2023-10-21 23:46:56.387,20339,215575,190212,-4262,-1.30491785,-3836,-1.1744873
2023-10-21 23:46:56.418,20340,215499,190171,-3860,-1.1818355,-3772,-1.1548921
2023-10-21 23:46:56.418,20341,215419,190139,-4744,-1.4524942,-3793,-1.161321775
2023-10-21 23:46:56.418,20342,215358,190112,-4626,-1.41636555,-3836,-1.1744873
2023-10-21 23:46:56.418,20343,215286,190099,-3694,-1.13101045,-3847,-1.177855225
2023-10-21 23:46:56.418,20344,215224,190075,-4327,-1.324819225,-3854,-1.17999845
2023-10-21 23:46:56.418,20345,215191,190048,-4613,-1.412385275,-3873,-1.185815775
2023-10-21 23:46:56.449,20346,215177,190035,-3556,-1.0887583,-3876,-1.1867343
2023-10-21 23:46:56.449,20347,215122,190036,-3528,-1.0801854,-3868,-1.1842849
2023-10-21 23:46:56.449,20348,215113,190024,-4143,-1.268483025,-3884,-1.1891837
2023-10-21 23:46:56.449,20349,215104,190023,-3515,-1.076205125,-3983,-1.219495025
2023-10-21 23:46:56.449,20350,215094,190023,-3031,-0.928016425,-4038,-1.23633465
2023-10-21 23:46:56.449,20351,215126,190022,-3787,-1.159484725,-4097,-1.254398975
2023-10-21 23:46:56.480,20352,215134,190019,-3675,-1.125193125,-4194,-1.28409795
2023-10-21 23:46:56.480,20353,215135,190032,-3012,-0.9221991,-4141,-1.267870675
2023-10-21 23:46:56.480,20354,215155,190051,-3505,-1.073143375,-4092,-1.2528681
2023-10-21 23:46:56.480,20355,215156,190035,-3760,-1.151218,-4152,-1.2712386
2023-10-21 23:46:56.480,20356,215172,190051,-3115,-0.953735125,-4189,-1.282567075
2023-10-21 23:46:56.511,20357,215206,190064,-3119,-0.954959825,-4181,-1.280117675
2023-10-21 23:46:56.511,20358,215223,190068,-3697,-1.131928975,-4204,-1.2871597
2023-10-21 23:46:56.511,20359,215244,190069,-3130,-0.95832775,-4245,-1.299712875
2023-10-21 23:46:56.511,20360,215278,190086,-2599,-0.795748825,-4256,-1.3030808
2023-10-21 23:46:56.511,20361,215293,190101,-3426,-1.04895555,-4266,-1.30614255
2023-10-21 23:46:56.511,20362,215297,190108,-3413,-1.044975275,-4274,-1.30859195
2023-10-21 23:46:56.543,20363,215284,190102,-2571,-0.787175925,-4256,-1.3030808
2023-10-21 23:46:56.543,20364,215307,190103,-3000,-0.918525,-4045,-1.238477875
2023-10-21 23:46:56.543,20365,215326,190098,-3524,-1.0789607,-3962,-1.21306535
2023-10-21 23:46:56.543,20366,215337,190107,-2652,-0.8119761,-3810,-1.16652675
2023-10-21 23:46:56.543,20367,215335,190111,-2672,-0.8180996,-3576,-1.0948818
2023-10-21 23:46:56.543,20368,215340,190111,-3467,-1.061508725,-3537,-1.082940975
2023-10-21 23:46:56.574,20369,215329,190118,-2839,-0.869230825,-3543,-1.084778025
2023-10-21 23:46:56.574,20370,215309,190113,-2267,-0.694098725,-3434,-1.05140495
2023-10-21 23:46:56.574,20371,215320,190104,-2911,-0.891275425,-3432,-1.0507926
2023-10-21 23:46:56.574,20372,215320,190103,-2847,-0.871680225,-3516,-1.0765113
2023-10-21 23:46:56.574,20373,215329,190107,-1931,-0.591223925,-3463,-1.060284025
2023-10-21 23:46:56.574,20374,215345,190106,-2369,-0.725328575,-3405,-1.042525875
2023-10-21 23:46:56.574,20375,215336,190102,-3085,-0.944549875,-3433,-1.051098775
2023-10-21 23:46:56.606,20376,215350,190109,-2537,-0.776765975,-3417,-1.046199975
2023-10-21 23:46:56.606,20377,215369,190114,-2598,-0.79544265,-3312,-1.0140516
2023-10-21 23:46:56.606,20378,215407,190124,-3276,-1.0030293,-3254,-0.99629345
2023-10-21 23:46:56.606,20379,215403,190141,-2679,-0.820242825,-3266,-0.99996755
2023-10-21 23:46:56.606,20380,215424,190136,-2267,-0.694098725,-3165,-0.969043875
2023-10-21 23:46:56.606,20381,215450,190137,-3224,-0.9871082,-3099,-0.948836325
2023-10-21 23:46:56.606,20382,215464,190149,-3178,-0.97302415,-3146,-0.96322655
2023-10-21 23:46:56.636,20383,215482,190159,-2407,-0.736963225,-3093,-0.946999275
2023-10-21 23:46:56.636,20384,215493,190160,-2968,-0.9087274,-3030,-0.92771025
2023-10-21 23:46:56.636,20385,215494,190163,-3394,-1.03915795,-3072,-0.9405696
2023-10-21 23:46:56.636,20386,215515,190166,-2579,-0.789625325,-3071,-0.940263425
2023-10-21 23:46:56.636,20387,215519,190161,-2584,-0.7911562,-3003,-0.919443525
2023-10-21 23:46:56.636,20388,215516,190170,-3385,-1.036402375,-2893,-0.885764275
2023-10-21 23:46:56.670,20389,215501,190155,-2863,-0.876579025,-2837,-0.868618475
2023-10-21 23:46:56.670,20390,215494,190158,-2618,-0.80156615,-2634,-0.80646495
2023-10-21 23:46:56.670,20391,215509,190151,-3488,-1.0679384,-2505,-0.766968375
2023-10-21 23:46:56.699,20392,215498,190151,-3546,-1.08569655,-2595,-0.794524125
2023-10-21 23:46:56.699,20393,215476,190156,-2840,-0.869537,-2630,-0.80524025
2023-10-21 23:46:56.699,20394,215475,190146,-3467,-1.061508725,-2657,-0.813506975
2023-10-21 23:46:56.699,20395,215491,190149,-3778,-1.15672915,-2780,-0.8511665
2023-10-21 23:46:56.699,20396,215481,190141,-2951,-0.903522425,-2786,-0.85300355
2023-10-21 23:46:56.699,20397,215487,190141,-2967,-0.908421225,-2714,-0.83095895
2023-10-21 23:46:56.731,20398,215477,190152,-3527,-1.079879225,-2779,-0.850860325
2023-10-21 23:46:56.731,20399,215476,190147,-3003,-0.919443525,-2856,-0.8744358
2023-10-21 23:46:56.731,20400,215505,190161,-2601,-0.796361175,-2778,-0.85055415
2023-10-21 23:46:56.731,20401,215511,190145,-3305,-1.011908375,-2782,-0.85177885
2023-10-21 23:46:56.731,20402,215508,190155,-3219,-0.985577325,-2862,-0.87627285
2023-10-21 23:46:56.731,20403,215535,190157,-2508,-0.7678869,-2851,-0.872904925
2023-10-21 23:46:56.762,20404,215541,190159,-3065,-0.938426375,-2847,-0.871680225
2023-10-21 23:46:56.762,20405,215557,190170,-3444,-1.0544667,-2878,-0.88117165
2023-10-21 23:46:56.762,20406,215576,190199,-2670,-0.81748725,-2891,-0.885151925
2023-10-21 23:46:56.762,20407,215607,190202,-2796,-0.8560653,-2893,-0.885764275
2023-10-21 23:46:56.762,20408,215621,190194,-3647,-1.116620225,-2915,-0.892500125
2023-10-21 23:46:56.762,20409,215632,190231,-3171,-0.970880925,-2959,-0.905971825
2023-10-21 23:46:56.762,20410,215665,190217,-2638,-0.80768965,-3077,-0.942100475
2023-10-21 23:46:56.795,20411,215694,190246,-3415,-1.045587625,-3205,-0.981290875
2023-10-21 23:46:56.795,20412,215724,190259,-3460,-1.0593655,-3365,-1.030278875
2023-10-21 23:46:56.795,20413,215758,190260,-2680,-0.820549,-3311,-1.013745425
2023-10-21 23:46:56.795,20414,215760,190275,-3161,-0.967819175,-3206,-0.98159705
2023-10-21 23:46:56.795,20415,215793,190287,-3513,-1.075592775,-3216,-0.9846588
2023-10-21 23:46:56.795,20416,215829,190287,-2855,-0.874129625,-3166,-0.96935005
2023-10-21 23:46:56.795,20417,215861,190309,-3013,-0.922505275,-3066,-0.93873255
2023-10-21 23:46:56.826,20418,215875,190327,-3737,-1.144175975,-3109,-0.951898075
2023-10-21 23:46:56.826,20419,215918,190338,-3207,-0.981903225,-3134,-0.95955245
2023-10-21 23:46:56.826,20420,215945,190350,-2830,-0.86647525,-3035,-0.929241125
2023-10-21 23:46:56.826,20421,215968,190371,-3653,-1.118457275,-3019,-0.924342325
2023-10-21 23:46:56.826,20422,215982,190379,-3558,-1.08937065,-3091,-0.946386925
2023-10-21 23:46:56.857,20423,216015,190379,-2866,-0.87749755,-3056,-0.9356708
2023-10-21 23:46:56.857,20424,216030,190383,-3462,-1.05997785,-3053,-0.934752275
2023-10-21 23:46:56.857,20425,216062,190400,-3874,-1.18612195,-3047,-0.932915225
2023-10-21 23:46:56.857,20426,216070,190410,-3106,-0.95097955,-3042,-0.93138435
2023-10-21 23:46:56.857,20427,216080,190403,-3206,-0.98159705,-3035,-0.929241125
2023-10-21 23:46:56.857,20428,216110,190428,-3846,-1.17754905,-3048,-0.9332214
2023-10-21 23:46:56.857,20429,216112,190419,-3329,-1.019256575,-3068,-0.9393449
2023-10-21 23:46:56.888,20430,216129,190420,-2948,-0.9026039,-3075,-0.941488125
2023-10-21 23:46:56.888,20431,216151,190436,-3646,-1.11631405,-3090,-0.94608075
2023-10-21 23:46:56.888,20432,216129,190419,-3569,-1.092738575,-3112,-0.9528166
2023-10-21 23:46:56.888,20433,216139,190425,-3013,-0.922505275,-3118,-0.95465365
2023-10-21 23:46:56.888,20434,216144,190424,-3551,-1.087227425,-3128,-0.9577154
2023-10-21 23:46:56.888,20435,216157,190434,-3926,-1.20204305,-3156,-0.9662883
2023-10-21 23:46:56.920,20436,216173,190442,-3087,-0.945162225,-3172,-0.9711871
2023-10-21 23:46:56.920,20437,216157,190436,-3245,-0.993537875,-3174,-0.97179945
2023-10-21 23:46:56.920,20438,216178,190445,-3791,-1.160709425,-3195,-0.978229125
2023-10-21 23:46:56.920,20439,216172,190432,-3368,-1.0311974,-3217,-0.984964975
2023-10-21 23:46:56.920,20440,216166,190433,-2888,-0.8842334,-3223,-0.986802025
2023-10-21 23:46:56.920,20441,216176,190441,-3793,-1.161321775,-3240,-0.992007
2023-10-21 23:46:56.920,20442,216184,190438,-3666,-1.12243755,-3281,-1.004560175
2023-10-21 23:46:56.920,20443,216185,190451,-2905,-0.889438375,-3308,-1.0128269
2023-10-21 23:46:56.935,20444,216183,190442,-3385,-1.036402375,-3315,-1.014970125
2023-10-21 23:46:56.935,20445,216181,190451,-3770,-1.15427975,-3348,-1.0250739
2023-10-21 23:46:56.937,20446,216187,190442,-3145,-0.962920375,-3365,-1.030278875
2023-10-21 23:46:56.937,20447,216192,190448,-3181,-0.973942675,-3370,-1.03180975
2023-10-21 23:46:56.937,20448,216182,190432,-3876,-1.1867343,-3386,-1.03670855
2023-10-21 23:46:56.937,20449,216176,190439,-3416,-1.0458938,-3397,-1.040076475
2023-10-21 23:46:56.937,20450,216178,190435,-2933,-0.898011275,-3392,-1.0385456
Time, Sample Count, IR Count, Red Count, Raw ECG, Raw ECG (mV), Filtered ECG, Filtered ECG (mV)
2023-10-21 23:55:17.223,20517,215940,188452,-26048,-7.9752464,-40588,-12.4270309
2023-10-21 23:55:17.253,20518,215958,188469,-24544,-7.5147592,-40429,-12.378349075
2023-10-21 23:55:17.286,20519,215932,188466,-25114,-7.68927895,-40351,-12.354467425
2023-10-21 23:55:17.286,20520,215935,188470,-25261,-7.734286675,-40440,-12.381717
2023-10-21 23:55:17.286,20521,215950,188460,-23553,-7.211339775,-40248,-12.3229314
2023-10-21 23:55:17.286,20522,215955,188464,-23221,-7.109689675,-39883,-12.211177525
2023-10-21 23:55:17.316,20523,215960,188478,-23773,-7.278698275,-39717,-12.160352475
2023-10-21 23:55:17.316,20524,215983,188483,-22437,-6.869648475,-39229,-12.010939075
2023-10-21 23:55:17.316,20525,215976,188473,-21605,-6.614910875,-37967,-11.624546225
2023-10-21 23:55:17.316,20526,215994,188484,-22561,-6.907614175,-36502,-11.17599985
2023-10-21 23:55:17.316,20527,215998,188484,-22128,-6.7750404,-35200,-10.77736
2023-10-21 23:55:17.347,20528,216000,188485,-21269,-6.512036075,-33671,-10.309218425
2023-10-21 23:55:17.347,20529,216034,188500,-22165,-6.786368875,-31953,-9.783209775
2023-10-21 23:55:17.347,20530,216035,188507,-22584,-6.9146562,-30354,-9.29363595
2023-10-21 23:55:17.347,20531,216041,188505,-21396,-6.5509203,-28841,-8.830393175
2023-10-21 23:55:17.378,20532,216050,188521,-21388,-6.5484709,-27606,-8.45226705
2023-10-21 23:55:17.378,20533,216056,188514,-22087,-6.762487225,-26840,-8.217737
2023-10-21 23:55:17.378,20534,216066,188509,-21100,-6.4602925,-26073,-7.982900775
2023-10-21 23:55:17.378,20535,216080,188512,-20283,-6.210147525,-25192,-7.7131606
2023-10-21 23:55:17.378,20536,216089,188518,-20916,-6.4039563,-24844,-7.6066117
2023-10-21 23:55:17.378,20537,216108,188525,-20280,-6.209229,-24941,-7.636310675
2023-10-21 23:55:17.378,20538,216097,188521,-18828,-5.7646629,-24774,-7.58517945
2023-10-21 23:55:17.410,20539,216111,188524,-19105,-5.849473375,-24362,-7.45903535
2023-10-21 23:55:17.410,20540,216119,188507,-19043,-5.830490525,-23889,-7.314214575
2023-10-21 23:55:17.410,20541,216115,188521,-17541,-5.370615675,-23107,-7.074785725
2023-10-21 23:55:17.410,20542,216144,188531,-17638,-5.40031465,-22337,-6.839030975
2023-10-21 23:55:17.410,20543,216151,188523,-18352,-5.6189236,-22130,-6.77565275
2023-10-21 23:55:17.410,20544,216155,188527,-17441,-5.339998175,-22152,-6.7823886
2023-10-21 23:55:17.410,20545,216150,188539,-16825,-5.151394375,-22049,-6.750852575
2023-10-21 23:55:17.441,20546,216158,188533,-17798,-5.44930265,-22071,-6.757588425
2023-10-21 23:55:17.441,20547,216179,188532,-17569,-5.379188575,-22114,-6.77075395
2023-10-21 23:55:17.441,20548,216194,188547,-16347,-5.005042725,-21869,-6.695741075
2023-10-21 23:55:17.441,20549,216188,188538,-16443,-5.034435525,-21686,-6.63971105
2023-10-21 23:55:17.441,20550,216198,188543,-16164,-4.9490127,-21777,-6.667572975
2023-10-21 23:55:17.441,20551,216200,188552,-14397,-4.408001475,-21684,-6.6390987
2023-10-21 23:55:17.441,20552,216231,188554,-14041,-4.299003175,-21344,-6.5349992
2023-10-21 23:55:17.441,20553,216228,188555,-14895,-4.560476625,-21007,-6.431818225
2023-10-21 23:55:17.441,20554,216226,188561,-14118,-4.32257865,-20561,-6.295264175
2023-10-21 23:55:17.472,20555,216256,188562,-13654,-4.18051345,-19901,-6.093188675
2023-10-21 23:55:17.472,20556,216273,188566,-14696,-4.4995478,-19457,-5.957246975
