Time, Sample Count, IR Count, Red Count, Raw ECG, Raw ECG (mV), Filtered ECG, Filtered ECG (mV)
2023-11-08 16:34:17.275,51,229733,204128,-7984,-2.4445012,-30474,-9.33037695
2023-11-08 16:34:17.313,52,229668,204104,-8462,-2.59085285,-29504,-9.0333872
2023-11-08 16:34:17.313,53,229599,204068,-8586,-2.62881855,-20897,-6.398138975
2023-11-08 16:34:17.313,54,229530,204048,-8682,-2.65821135,-11065,-3.387826375
2023-11-08 16:34:17.313,55,229470,204025,-9064,-2.7751702,-6232,-1.9080826
2023-11-08 16:34:17.329,56,229444,204022,-9297,-2.846508975,-8056,-2.4665458
2023-11-08 16:34:17.329,57,229387,203988,-9440,-2.890292,-13014,-3.98456145
2023-11-08 16:34:17.329,58,229350,203981,-9780,-2.9943915,-15914,-4.87246895
2023-11-08 16:34:17.329,59,229701,203960,-10292,-3.1511531,-14247,-4.362075225
2023-11-08 16:34:17.329,60,229688,203963,-10696,-3.2748478,-9509,-2.911418075
2023-11-08 16:34:17.360,61,229693,203958,-11126,-3.40650305,-5169,-1.582618575
2023-11-08 16:34:17.360,62,229696,203957,-11156,-3.4156883,-3813,-1.167445275
2023-11-08 16:34:17.360,63,229655,203961,-10738,-3.28770715,-5525,-1.691616875
2023-11-08 16:34:17.360,64,229676,203962,-10102,-3.09297985,-8324,-2.5486007
2023-11-08 16:34:17.393,65,229656,203941,-9892,-3.0286831,-10133,-3.102471275
2023-11-08 16:34:17.393,66,229656,203939,-9717,-2.975102475,-10166,-3.11257505
2023-11-08 16:34:17.393,67,229684,203954,-9277,-2.840385475,-8885,-2.720364875
2023-11-08 16:34:17.393,68,229654,203950,-8820,-2.7004635,-7407,-2.267838225
2023-11-08 16:34:17.425,69,229675,203940,-8499,-2.602181325,-6637,-2.032083475
2023-11-08 16:34:17.425,70,229681,203964,-8268,-2.5314549,-6793,-2.079846775
2023-11-08 16:34:17.425,71,229702,203953,-7912,-2.4224566,-7732,-2.3673451
2023-11-08 16:34:17.425,72,229710,203951,-7571,-2.318050925,-9152,-2.8021136
2023-11-08 16:34:17.425,73,229716,203967,-7490,-2.29325075,-10454,-3.20075345
2023-11-08 16:34:17.425,74,229755,203971,-7655,-2.343769625,-10960,-3.355678
2023-11-08 16:34:17.454,75,229763,203972,-8009,-2.452155575,-10417,-3.189424975
2023-11-08 16:34:17.454,76,229802,203994,-8049,-2.464402575,-9259,-2.834874325
2023-11-08 16:34:17.454,77,229846,203992,-8104,-2.4812422,-8465,-2.591771375
2023-11-08 16:34:17.454,78,229856,203996,-8533,-2.612591275,-8925,-2.732611875
2023-11-08 16:34:17.454,79,229886,204015,-8876,-2.7176093,-10616,-3.2503538
2023-11-08 16:34:17.454,80,229901,204000,-9019,-2.761392325,-12426,-3.80453055
2023-11-08 16:34:17.454,81,229876,204016,-8679,-2.657292825,-12989,-3.976907075
2023-11-08 16:34:17.489,82,229873,204018,-8258,-2.52839315,-11768,-3.6030674
2023-11-08 16:34:17.489,83,229850,203988,-8041,-2.461953175,-9452,-2.8939661
2023-11-08 16:34:17.489,84,229861,203998,-7960,-2.437153,-7508,-2.2987619
2023-11-08 16:34:17.489,85,229823,203990,-7771,-2.379285925,-7189,-2.201092075
2023-11-08 16:34:17.489,86,229857,203981,-7569,-2.317438575,-8518,-2.60799865
2023-11-08 16:34:17.489,87,229844,203982,-7273,-2.226810775,-10174,-3.11502445
2023-11-08 16:34:17.489,88,229831,203986,-6840,-2.094237,-10534,-3.22524745
2023-11-08 16:34:17.489,89,229841,203975,-6551,-2.005752425,-9058,-2.77333315
2023-11-08 16:34:17.489,90,229871,203982,-6395,-1.957989125,-6770,-2.07280475
2023-11-08 16:34:17.519,91,229887,203995,-6453,-1.975747275,-5404,-1.6545697
2023-11-08 16:34:17.519,92,229877,203982,-6623,-2.027797025,-5965,-1.826333875
2023-11-08 16:34:17.519,93,229900,203990,-6546,-2.00422155,-7914,-2.42306895
2023-11-08 16:34:17.519,94,229891,203989,-6555,-2.006977125,-9750,-2.98520625
2023-11-08 16:34:17.519,95,229896,203994,-6689,-2.048004575,-10231,-3.132476425
2023-11-08 16:34:17.519,96,229927,203993,-6684,-2.0464737,-9213,-2.820790275
2023-11-08 16:34:17.519,97,229889,203988,-6916,-2.1175063,-7684,-2.3526487
2023-11-08 16:34:17.519,98,229906,204006,-7176,-2.1971118,-6925,-2.120261875
2023-11-08 16:34:17.553,99,229937,204012,-6808,-2.0844394,-7518,-2.30182365
2023-11-08 16:34:17.553,100,229944,204011,-6150,-1.88297625,-8910,-2.72801925
2023-11-08 16:34:17.553,101,229938,204021,-6264,-1.9178802,-9848,-3.0152114
2023-11-08 16:34:17.553,102,229962,204008,-6604,-2.0219797,-9434,-2.88845495
2023-11-08 16:34:17.553,103,229941,204002,-6665,-2.040656375,-7890,-2.41572075
2023-11-08 16:34:17.553,104,229957,204005,-6647,-2.035145225,-6305,-1.930433375
2023-11-08 16:34:17.553,105,229947,203991,-6381,-1.953702675,-5704,-1.7464222
2023-11-08 16:34:17.582,106,229922,203982,-6472,-1.9815646,-6287,-1.924922225
2023-11-08 16:34:17.582,107,229897,203977,-6610,-2.02381675,-7325,-2.242731875
2023-11-08 16:34:17.582,108,229876,203962,-6133,-1.877771275,-7838,-2.39979965
2023-11-08 16:34:17.582,109,229860,203960,-5569,-1.705088575,-7370,-2.25650975
2023-11-08 16:34:17.582,110,229855,203956,-5161,-1.580169175,-6286,-1.92461605
2023-11-08 16:34:17.582,111,229831,203948,-4765,-1.458923875,-5485,-1.679369875
2023-11-08 16:34:17.582,112,229815,203944,-3876,-1.1867343,-5601,-1.714886175
2023-11-08 16:34:17.582,113,229810,203944,-3955,-1.210922125,-6485,-1.985544875
2023-11-08 16:34:17.611,114,229801,203931,-4031,-1.234191425,-7470,-2.28712725
2023-11-08 16:34:17.611,115,229772,203935,-3909,-1.196838075,-7865,-2.408066375
2023-11-08 16:34:17.611,116,229767,203918,-3776,-1.1561168,-7364,-2.2546727
2023-11-08 16:34:17.611,117,229768,203907,-3485,-1.067019875,-6393,-1.957376775
2023-11-08 16:34:17.611,118,229763,203913,-3276,-1.0030293,-5799,-1.775508825
2023-11-08 16:34:17.611,119,229745,203916,-2892,-0.8854581,-5964,-1.8260277
2023-11-08 16:34:17.611,120,229733,203910,-2795,-0.855759125,-6553,-2.006364775
2023-11-08 16:34:17.642,121,229725,203896,-3032,-0.9283226,-7000,-2.143225
2023-11-08 16:34:17.642,122,229733,203896,-3160,-0.967513,-6984,-2.1383262
2023-11-08 16:34:17.642,123,229723,203919,-3043,-0.931690525,-6658,-2.03851315
2023-11-08 16:34:17.642,124,229715,203892,-2829,-0.866169075,-6314,-1.93318895
2023-11-08 16:34:17.642,125,229724,203906,-2902,-0.88851985,-6051,-1.852664925
2023-11-08 16:34:17.672,126,229759,203918,-3247,-0.994150225,-5875,-1.798778125
2023-11-08 16:34:17.672,127,229779,203924,-3280,-1.004254,-5744,-1.7586692
2023-11-08 16:34:17.672,128,229794,203922,-3473,-1.063345775,-5452,-1.6692661
2023-11-08 16:34:17.672,129,229830,203939,-3778,-1.15672915,-4884,-1.4953587
2023-11-08 16:34:17.672,130,229842,203929,-4103,-1.256236025,-4290,-1.31349075
2023-11-08 16:34:17.672,131,229866,203952,-4483,-1.372582525,-3885,-1.189489875
2023-11-08 16:34:17.672,132,229892,203949,-4896,-1.4990328,-3676,-1.1254993
2023-11-08 16:34:17.705,133,229875,203973,-5307,-1.624870725,-3622,-1.10896585
2023-11-08 16:34:17.705,134,229874,203961,-5527,-1.692229225,-3632,-1.1120276
2023-11-08 16:34:17.705,135,229880,203965,-5453,-1.669572275,-3599,-1.101923825
2023-11-08 16:34:17.705,136,229883,203956,-5504,-1.6851872,-3432,-1.0507926
2023-11-08 16:34:17.705,137,229902,203944,-5622,-1.72131585,-3181,-0.973942675
2023-11-08 16:34:17.705,138,229918,203961,-5412,-1.6570191,-2980,-0.9124015
2023-11-08 16:34:17.705,139,229925,203977,-5145,-1.575270375,-2864,-0.8768852
2023-11-08 16:34:17.735,140,229948,203978,-4811,-1.473007925,-2808,-0.8597394
2023-11-08 16:34:17.735,141,229967,203982,-4715,-1.443615125,-2826,-0.86525055
2023-11-08 16:34:17.735,142,229978,203991,-4818,-1.47515115,-2979,-0.912095325
2023-11-08 16:34:17.735,143,229997,203989,-4927,-1.508524225,-3211,-0.983127925
2023-11-08 16:34:17.735,144,230004,203970,-5012,-1.5345491,-3351,-1.025992425
2023-11-08 16:34:17.770,145,230003,203977,-5087,-1.557512225,-3373,-1.032728275
2023-11-08 16:34:17.770,146,230025,203980,-5146,-1.57557655,-3411,-1.044362925
2023-11-08 16:34:17.770,147,230017,203989,-5294,-1.62089045,-3597,-1.101311475
2023-11-08 16:34:17.770,148,230036,203982,-5652,-1.7305011,-3986,-1.22041355
2023-11-08 16:34:17.770,149,230019,203999,-5990,-1.83398825,-4520,-1.383911
2023-11-08 16:34:17.770,150,230045,203989,-6233,-1.908388775,-5052,-1.5467961
2023-11-08 16:34:17.770,151,230019,203997,-6379,-1.953090325,-5404,-1.6545697
2023-11-08 16:34:17.799,152,230027,203993,-6545,-2.003915375,-5504,-1.6851872
2023-11-08 16:34:17.799,153,230008,203972,-6637,-2.032083475,-5483,-1.678757525
2023-11-08 16:34:17.799,154,230022,203987,-7040,-2.155472,-5478,-1.67722665
2023-11-08 16:34:17.799,155,230007,203983,-7399,-2.265388825,-5478,-1.67722665
2023-11-08 16:34:17.799,156,230011,203982,-7636,-2.3379523,-5421,-1.659774675
2023-11-08 16:34:17.799,157,229985,203972,-7464,-2.2852902,-5270,-1.61354225
2023-11-08 16:34:17.832,158,230008,203967,-7441,-2.278248175,-5065,-1.550776375
2023-11-08 16:34:17.832,159,229991,203969,-7329,-2.243956575,-4881,-1.494440175
2023-11-08 16:34:17.832,160,230012,203972,-7286,-2.23079105,-4763,-1.458311525
2023-11-08 16:34:17.832,161,230009,203986,-7166,-2.19405005,-4748,-1.4537189
2023-11-08 16:34:17.832,162,230006,203976,-7126,-2.18180305,-4861,-1.488316675
2023-11-08 16:34:17.832,163,229990,203967,-7256,-2.2216058,-5064,-1.5504702
2023-11-08 16:34:17.832,164,229999,203954,-7385,-2.261102375,-5302,-1.62333985
2023-11-08 16:34:17.864,165,230001,203951,-7393,-2.263551775,-5534,-1.69437245
2023-11-08 16:34:17.864,166,230027,203965,-7683,-2.352342525,-5727,-1.753464225
2023-11-08 16:34:17.864,167,230013,203956,-8351,-2.556867425,-5883,-1.801227525
2023-11-08 16:34:17.864,168,230044,203975,-8880,-2.718834,-6062,-1.85603285
2023-11-08 16:34:17.864,169,230066,203984,-9619,-2.945097325,-6305,-1.930433375
2023-11-08 16:34:17.864,170,230091,203981,-10555,-3.231677125,-6602,-2.02136735
2023-11-08 16:34:17.864,171,230109,204005,-11258,-3.44691815,-6923,-2.119649525
2023-11-08 16:34:17.893,172,230138,204004,-11957,-3.660934475,-7205,-2.205990875
2023-11-08 16:34:17.893,173,230146,204031,-12465,-3.816471375,-7364,-2.2546727
2023-11-08 16:34:17.893,174,230164,204014,-12824,-3.9263882,-7397,-2.264776475
2023-11-08 16:34:17.893,175,230189,204024,-12631,-3.867296425,-7409,-2.268450575
2023-11-08 16:34:17.893,176,230219,204022,-12230,-3.74452025,-7459,-2.283759325
2023-11-08 16:34:17.893,177,230215,204014,-11476,-3.5136643,-7495,-2.294781625
2023-11-08 16:34:17.924,178,230194,204022,-10769,-3.297198575,-7438,-2.27732965
2023-11-08 16:34:17.924,179,230174,204015,-10018,-3.06726115,-7295,-2.233546625
2023-11-08 16:34:17.924,180,230190,204012,-9515,-2.913255125,-7176,-2.1971118
2023-11-08 16:34:17.924,181,230185,204016,-9078,-2.77945665,-7155,-2.190682125
2023-11-08 16:34:17.924,182,230180,203998,-8891,-2.722201925,-7245,-2.218237875
2023-11-08 16:34:17.924,183,230140,204006,-8346,-2.55533655,-7485,-2.291719875
2023-11-08 16:34:17.924,184,230141,203986,-7698,-2.35693515,-7907,-2.420925725
2023-11-08 16:34:17.956,185,230124,203974,-7117,-2.179047475,-8408,-2.5743194
2023-11-08 16:34:17.956,186,230115,203971,-6474,-1.98217695,-8969,-2.746083575
2023-11-08 16:34:17.956,187,230121,203969,-6212,-1.9019591,-9642,-2.95213935
2023-11-08 16:34:17.956,188,230124,203972,-6032,-1.8468476,-10409,-3.186975575
2023-11-08 16:34:17.956,189,230153,203966,-5651,-1.730194925,-11214,-3.43344645
2023-11-08 16:34:17.956,190,230120,203957,-5413,-1.657325275,-11974,-3.66613945
2023-11-08 16:34:17.988,191,230134,203972,-5503,-1.684881025,-12551,-3.842802425
2023-11-08 16:34:17.988,192,230105,203967,-5477,-1.676920475,-12802,-3.91965235
2023-11-08 16:34:17.988,193,230093,203973,-5080,-1.555369,-12681,-3.882605175
2023-11-08 16:34:17.988,194,230092,203954,-4987,-1.526894725,-12246,-3.74941905
2023-11-08 16:34:17.988,195,230112,203961,-4775,-1.461985625,-11609,-3.554385575
2023-11-08 16:34:18.018,196,230101,203952,-4580,-1.4022815,-10888,-3.3336334
2023-11-08 16:34:18.018,197,230073,203962,-4463,-1.366459025,-10182,-3.11747385
2023-11-08 16:34:18.018,198,230085,203950,-4564,-1.3973827,-9569,-2.929788575
2023-11-08 16:34:18.018,199,230108,203966,-4630,-1.41759025,-9079,-2.779762825
2023-11-08 16:34:18.018,200,230120,203960,-4861,-1.488316675,-8636,-2.6441273
2023-11-08 16:34:18.018,201,230147,203977,-5606,-1.71641705,-8179,-2.504205325
2023-11-08 16:34:18.018,202,230171,203981,-6125,-1.875321875,-7697,-2.356628975
2023-11-08 16:34:18.050,203,230187,203993,-6431,-1.969011425,-7186,-2.20017355
2023-11-08 16:34:18.050,204,230224,203993,-6559,-2.008201825,-6702,-2.05198485
2023-11-08 16:34:18.050,205,230234,203999,-6753,-2.067599775,-6270,-1.91971725
2023-11-08 16:34:18.050,206,230230,204001,-6968,-2.1334274,-5865,-1.795716375
2023-11-08 16:34:18.050,207,230257,204024,-7167,-2.194356225,-5562,-1.70294535
2023-11-08 16:34:18.050,208,230249,204000,-7490,-2.29325075,-5455,-1.670184625
2023-11-08 16:34:18.083,209,230272,204019,-7648,-2.3416264,-5442,-1.66620435
2023-11-08 16:34:18.083,210,230261,204015,-7927,-2.427049225,-5359,-1.640791825
2023-11-08 16:34:18.083,211,230272,204031,-8314,-2.54553895,-5202,-1.59272235
2023-11-08 16:34:18.083,212,230273,204009,-8738,-2.67535715,-5002,-1.53148735
2023-11-08 16:34:18.083,213,230307,204024,-8689,-2.660354575,-4784,-1.4647412
2023-11-08 16:34:18.083,214,230302,204027,-8650,-2.64841375,-4613,-1.412385275
2023-11-08 16:34:18.083,215,230324,204042,-8752,-2.6796436,-4540,-1.3900345
2023-11-08 16:34:18.083,216,230350,204037,-8743,-2.676888025,-4552,-1.3937086
2023-11-08 16:34:18.113,217,230383,204064,-8727,-2.671989225,-4688,-1.4353484
2023-11-08 16:34:18.113,218,230376,204057,-8721,-2.670152175,-5028,-1.5394479
2023-11-08 16:34:18.113,219,230392,204042,-8150,-2.49532625,-5496,-1.6827378
2023-11-08 16:34:18.113,220,230334,204028,-7109,-2.176598075,-5955,-1.823272125
2023-11-08 16:34:18.113,221,230342,204021,-6533,-2.000241275,-6337,-1.940230975
2023-11-08 16:34:18.113,222,230306,204003,-6111,-1.871035425,-6651,-2.036369925
2023-11-08 16:34:18.113,223,230236,203981,-5501,-1.684268675,-6906,-2.11444455
2023-11-08 16:34:18.141,224,230206,203960,-4974,-1.52291445,-7105,-2.175373375
2023-11-08 16:34:18.141,225,230165,203937,-4520,-1.383911,-7274,-2.22711695
2023-11-08 16:34:18.141,226,230141,203928,-4216,-1.2908338,-7438,-2.27732965
2023-11-08 16:34:18.141,227,230109,203907,-3779,-1.157035325,-7654,-2.34346345
2023-11-08 16:34:18.141,228,230061,203900,-3886,-1.18979605,-7979,-2.442970325
2023-11-08 16:34:18.172,229,230028,203878,-4268,-1.3067549,-8350,-2.55656125
2023-11-08 16:34:18.172,230,229981,203851,-4813,-1.473620275,-8610,-2.63616675
2023-11-08 16:34:18.172,231,229945,203818,-5567,-1.704476225,-8731,-2.673213925
2023-11-08 16:34:18.204,232,229880,203810,-6351,-1.944517425,-8789,-2.690972075
2023-11-08 16:34:18.204,233,229811,203787,-7454,-2.28222845,-8806,-2.69617705
2023-11-08 16:34:18.204,234,229760,203758,-7999,-2.449093825,-8795,-2.692809125
2023-11-08 16:34:18.204,235,229708,203748,-8447,-2.586260225,-8734,-2.67413245
2023-11-08 16:34:18.204,236,229659,203715,-8560,-2.620858,-8480,-2.596364
2023-11-08 16:34:18.204,237,229612,203685,-8748,-2.6784189,-7971,-2.440520925
2023-11-08 16:34:18.236,238,229555,203689,-9108,-2.7886419,-7372,-2.2571221
2023-11-08 16:34:18.236,239,229525,203675,-9067,-2.776088725,-6778,-2.07525415
2023-11-08 16:34:18.236,240,229482,203664,-8917,-2.730162475,-6145,-1.881445375
2023-11-08 16:34:18.236,241,229454,203630,-8055,-2.466239625,-5478,-1.67722665
2023-11-08 16:34:18.236,242,229435,203638,-7305,-2.236608375,-4881,-1.494440175
2023-11-08 16:34:18.236,243,229428,203621,-6136,-1.8786898,-4421,-1.353599675
2023-11-08 16:34:18.268,244,229388,203617,-4812,-1.4733141,-4105,-1.256848375
2023-11-08 16:34:18.268,245,229377,203609,-4202,-1.28654735,-3985,-1.220107375
2023-11-08 16:34:18.268,246,229363,203607,-3911,-1.197450425,-4071,-1.246438425
2023-11-08 16:34:18.268,247,229340,203600,-3552,-1.0875336,-4334,-1.32696245
2023-11-08 16:34:18.268,248,229364,203608,-3399,-1.040688825,-4773,-1.461373275
2023-11-08 16:34:18.268,249,229330,203586,-2880,-0.881784,-5438,-1.66497965
2023-11-08 16:34:18.268,250,229345,203596,-2302,-0.70481485,-6322,-1.93563835
2023-11-08 16:34:18.299,251,229363,203587,-2281,-0.698385175,-7247,-2.218850225
2023-11-08 16:34:18.299,252,229378,203607,-2262,-0.69256785,-8015,-2.453992625
2023-11-08 16:34:18.299,253,229406,203608,-2322,-0.71093835,-8520,-2.608611
2023-11-08 16:34:18.299,254,229434,203622,-2552,-0.7813586,-8810,-2.69740175
2023-11-08 16:34:18.299,255,229452,203628,-3165,-0.969043875,-8978,-2.74883915
2023-11-08 16:34:18.299,256,229470,203633,-3719,-1.138664825,-9038,-2.76720965
2023-11-08 16:34:18.299,257,229491,203634,-3600,-1.10223,-8947,-2.739347725
2023-11-08 16:34:18.332,258,229478,203642,-3465,-1.060896375,-8643,-2.646270525
2023-11-08 16:34:18.332,259,229506,203629,-3396,-1.0397703,-8123,-2.487059525
2023-11-08 16:34:18.332,260,229523,203656,-3256,-0.9969058,-7334,-2.24548745
2023-11-08 16:34:18.332,261,229568,203666,-3193,-0.977616775,-6286,-1.92461605
2023-11-08 16:34:18.332,262,229585,203679,-3052,-0.9344461,-5225,-1.599764375
2023-11-08 16:34:18.332,263,229598,203692,-3042,-0.93138435,-4344,-1.3300242
2023-11-08 16:34:18.332,264,229608,203704,-2917,-0.893112475,-3698,-1.13223515
2023-11-08 16:34:18.332,265,229639,203712,-3036,-0.9295473,-3297,-1.009458975
2023-11-08 16:34:18.332,266,229652,203728,-3484,-1.0667137,-3025,-0.926179375
2023-11-08 16:34:18.362,267,229702,203735,-3492,-1.0691631,-2797,-0.856371475
2023-11-08 16:34:18.362,268,229689,203736,-3676,-1.1254993,-2631,-0.805546425
2023-11-08 16:34:18.362,269,229705,203725,-3904,-1.1953072,-2479,-0.759007825
2023-11-08 16:34:18.362,270,229712,203745,-4094,-1.25348045,-2314,-0.70848895
2023-11-08 16:34:18.362,271,229728,203731,-4192,-1.2834856,-2262,-0.69256785
2023-11-08 16:34:18.362,272,229710,203714,-3797,-1.162546475,-2498,-0.76482515
2023-11-08 16:34:18.362,273,229692,203736,-3859,-1.181529325,-2968,-0.9087274
2023-11-08 16:34:18.392,274,229668,203724,-3685,-1.128254875,-3404,-1.0422197
2023-11-08 16:34:18.392,275,229647,203715,-3534,-1.08202245,-3655,-1.119069625
2023-11-08 16:34:18.392,276,229632,203707,-3596,-1.1010053,-3706,-1.13468455
2023-11-08 16:34:18.392,277,229624,203696,-3702,-1.13345985,-3578,-1.09549415
2023-11-08 16:34:18.392,278,229610,203706,-3838,-1.17509965,-3347,-1.024767725
2023-11-08 16:34:18.392,279,229643,203696,-3803,-1.164383525,-3118,-0.95465365
2023-11-08 16:34:18.424,280,229643,203698,-4103,-1.256236025,-2980,-0.9124015
2023-11-08 16:34:18.424,281,229653,203713,-4412,-1.3508441,-2948,-0.9026039
2023-11-08 16:34:18.424,282,229688,203724,-5000,-1.530875,-3043,-0.931690525
2023-11-08 16:34:18.424,283,229724,203734,-5521,-1.690392175,-3232,-0.9895576
2023-11-08 16:34:18.424,284,229700,203729,-5939,-1.818373325,-3381,-1.035177675
2023-11-08 16:34:18.424,285,229716,203735,-6617,-2.025959975,-3488,-1.0679384
2023-11-08 16:34:18.424,286,229720,203738,-7266,-2.22466755,-3634,-1.11263995
2023-11-08 16:34:18.456,287,229737,203730,-7883,-2.413577525,-3848,-1.1781614
2023-11-08 16:34:18.456,288,229748,203747,-8453,-2.588097275,-4037,-1.236028475
2023-11-08 16:34:18.456,289,229777,203738,-9065,-2.775476375,-4090,-1.25225575
2023-11-08 16:34:18.456,290,229768,203763,-9407,-2.880188225,-4042,-1.23755935
2023-11-08 16:34:18.456,291,229797,203751,-9571,-2.930400925,-3913,-1.198062775
2023-11-08 16:34:18.456,292,229806,203767,-9474,-2.90070195,-3729,-1.141726575
2023-11-08 16:34:18.487,293,229818,203761,-9215,-2.821402625,-3597,-1.101311475
2023-11-08 16:34:18.487,294,229809,203763,-8576,-2.6257568,-3577,-1.095187975
2023-11-08 16:34:18.487,295,229814,203759,-7876,-2.4114343,-3646,-1.11631405
2023-11-08 16:34:18.487,296,229786,203741,-7363,-2.254366525,-3760,-1.151218
2023-11-08 16:34:18.487,297,229770,203760,-6568,-2.0109574,-3934,-1.20449245
2023-11-08 16:34:18.519,298,229735,203720,-5827,-1.784081725,-4189,-1.282567075
2023-11-08 16:34:18.519,299,229733,203722,-5077,-1.554450475,-4539,-1.389728325
2023-11-08 16:34:18.519,300,229699,203700,-4307,-1.318695725,-4956,-1.5174033
2023-11-08 16:34:18.519,301,229706,203709,-4089,-1.251949575,-5421,-1.659774675
2023-11-08 16:34:18.519,302,229680,203691,-4074,-1.24735695,-5988,-1.8333759
2023-11-08 16:34:18.519,303,229658,203683,-3863,-1.182754025,-6650,-2.03606375
2023-11-08 16:34:18.519,304,229647,203680,-3480,-1.065489,-7328,-2.2436504
2023-11-08 16:34:18.519,305,229651,203676,-2539,-0.777378325,-7968,-2.4396024
2023-11-08 16:34:18.550,306,229603,203663,-2276,-0.6968543,-8544,-2.6159592
2023-11-08 16:34:18.550,307,229604,203670,-1974,-0.60438945,-9016,-2.7604738
2023-11-08 16:34:18.550,308,229638,203658,-2005,-0.613880875,-9350,-2.86273625
2023-11-08 16:34:18.550,309,229614,203657,-2210,-0.67664675,-9529,-2.917541575
2023-11-08 16:34:18.550,310,229613,203661,-2333,-0.714306275,-9509,-2.911418075
2023-11-08 16:34:18.550,311,229644,203660,-2396,-0.7335953,-9227,-2.825076725
2023-11-08 16:34:18.582,312,229677,203671,-2902,-0.88851985,-8711,-2.667090425
2023-11-08 16:34:18.582,313,229700,203684,-3940,-1.2063295,-8061,-2.468076675
2023-11-08 16:34:18.582,314,229697,203722,-4689,-1.435654575,-7313,-2.239057775
2023-11-08 16:34:18.582,315,229725,203716,-5223,-1.599152025,-6523,-1.997179525
2023-11-08 16:34:18.582,316,229795,203721,-5884,-1.8015337,-5750,-1.76050625
2023-11-08 16:34:18.582,317,229781,203727,-6218,-1.90379615,-5044,-1.5443467
2023-11-08 16:34:18.582,318,229826,203751,-6383,-1.954315025,-4519,-1.383604825
2023-11-08 16:34:18.582,319,229827,203748,-6497,-1.989218975,-4181,-1.280117675
2023-11-08 16:34:18.611,320,229863,203765,-6398,-1.95890765,-3916,-1.1989813
2023-11-08 16:34:18.611,321,229868,203773,-6032,-1.8468476,-3588,-1.0985559
2023-11-08 16:34:18.611,322,229907,203767,-5819,-1.781632325,-3157,-0.966594475
2023-11-08 16:34:18.611,323,229888,203776,-5333,-1.632831275,-2758,-0.84443065
2023-11-08 16:34:18.611,324,229904,203794,-4793,-1.467496775,-2449,-0.749822575
2023-11-08 16:34:18.611,325,229907,203769,-4518,-1.38329865,-2215,-0.678177625
2023-11-08 16:34:18.611,326,229913,203774,-4357,-1.334004475,-2073,-0.634700775
2023-11-08 16:34:18.643,327,229900,203762,-4126,-1.26327805,-2017,-0.617554975
2023-11-08 16:34:18.643,328,229893,203778,-3791,-1.160709425,-2100,-0.6429675
2023-11-08 16:34:18.643,329,229906,203762,-3467,-1.061508725,-2467,-0.755333725
2023-11-08 16:34:18.643,330,229901,203768,-3323,-1.017419525,-3153,-0.965369775
2023-11-08 16:34:18.643,331,229896,203760,-3274,-1.00241695,-3931,-1.203573925
2023-11-08 16:34:18.673,332,229891,203762,-3166,-0.96935005,-4617,-1.413609975
2023-11-08 16:34:18.673,333,229907,203750,-3152,-0.9650636,-5219,-1.597927325
2023-11-08 16:34:18.673,334,229897,203748,-2959,-0.905971825,-5746,-1.75928155
2023-11-08 16:34:18.673,335,229888,203743,-2965,-0.907808875,-6182,-1.89277385
2023-11-08 16:34:18.673,336,229898,203756,-3106,-0.95097955,-6499,-1.989831325
2023-11-08 16:34:18.673,337,229874,203746,-2771,-0.848410925,-6605,-2.022285875
2023-11-08 16:34:18.673,338,229899,203756,-2176,-0.6662368,-6463,-1.978809025
2023-11-08 16:34:18.704,339,229910,203756,-1896,-0.5805078,-6153,-1.883894775
2023-11-08 16:34:18.704,340,229927,203774,-2379,-0.728390325,-5740,-1.7574445
2023-11-08 16:34:18.704,341,229958,203771,-2997,-0.917606475,-5291,-1.619971925
2023-11-08 16:34:18.704,342,229972,203775,-3482,-1.06610135,-4909,-1.503013075
2023-11-08 16:34:18.704,343,229987,203768,-3691,-1.130091925,-4613,-1.412385275
2023-11-08 16:34:18.704,344,229993,203790,-3954,-1.21061595,-4334,-1.32696245
2023-11-08 16:34:18.737,345,230015,203781,-4023,-1.231742025,-4024,-1.2320482
2023-11-08 16:34:18.737,346,230006,203803,-4179,-1.279505325,-3721,-1.139277175
2023-11-08 16:34:18.737,347,230018,203811,-4378,-1.34043415,-3502,-1.07222485
2023-11-08 16:34:18.737,348,230009,203805,-4681,-1.433205175,-3373,-1.032728275
2023-11-08 16:34:18.737,349,230001,203791,-4787,-1.465659725,-3278,-1.00364165
2023-11-08 16:34:18.768,350,230017,203800,-4761,-1.457699175,-3177,-0.972717975
2023-11-08 16:34:18.768,351,230030,203790,-4530,-1.38697275,-3056,-0.9356708
2023-11-08 16:34:18.768,352,230038,203801,-4471,-1.368908425,-2989,-0.915157075
2023-11-08 16:34:18.768,353,230035,203803,-4714,-1.44330895,-2997,-0.917606475
2023-11-08 16:34:18.768,354,230056,203808,-4337,-1.327880975,-2928,-0.8964804
2023-11-08 16:34:18.768,355,230074,203808,-4134,-1.26572745,-2676,-0.8193243
2023-11-08 16:34:18.798,356,230070,203825,-4129,-1.264196575,-2387,-0.730839725
2023-11-08 16:34:18.798,357,230069,203810,-4007,-1.226843225,-2303,-0.705121025
2023-11-08 16:34:18.798,358,230069,203817,-4095,-1.253786625,-2478,-0.75870165
2023-11-08 16:34:18.798,359,230098,203803,-3899,-1.193776325,-2796,-0.8560653
2023-11-08 16:34:18.798,360,230093,203819,-3616,-1.1071288,-3167,-0.969656225
2023-11-08 16:34:18.798,361,230082,203824,-3627,-1.110496725,-3568,-1.0924324
2023-11-08 16:34:18.830,362,230088,203821,-3760,-1.151218,-3945,-1.207860375
2023-11-08 16:34:18.830,363,230075,203811,-3521,-1.078042175,-4230,-1.29512025
2023-11-08 16:34:18.830,364,230068,203805,-3218,-0.98527115,-4410,-1.35023175
2023-11-08 16:34:18.830,365,230035,203802,-2976,-0.9111768,-4509,-1.380543075
2023-11-08 16:34:18.830,366,230046,203788,-2889,-0.884539575,-4564,-1.3973827
2023-11-08 16:34:18.862,367,230044,203775,-3015,-0.923117625,-4601,-1.408711175
2023-11-08 16:34:18.862,368,230043,203791,-3098,-0.94853015,-4628,-1.4169779
2023-11-08 16:34:18.862,369,230049,203791,-2933,-0.898011275,-4685,-1.434429875
2023-11-08 16:34:18.862,370,230053,203795,-2635,-0.806771125,-4736,-1.4500448
2023-11-08 16:34:18.862,371,230069,203791,-2801,-0.857596175,-4620,-1.4145285
2023-11-08 16:34:18.862,372,230089,203786,-2939,-0.899848325,-4375,-1.339515625
2023-11-08 16:34:18.894,373,230089,203812,-2867,-0.877803725,-4166,-1.27552505
2023-11-08 16:34:18.894,374,230071,203785,-2869,-0.878416075,-4056,-1.2418458
2023-11-08 16:34:18.894,375,230086,203797,-3360,-1.028748,-4046,-1.23878405
2023-11-08 16:34:18.894,376,230076,203804,-3848,-1.1781614,-4019,-1.230517325
2023-11-08 16:34:18.894,377,230092,203808,-4063,-1.243989025,-3902,-1.19469485
2023-11-08 16:34:18.894,378,230099,203820,-4223,-1.292977025,-3779,-1.157035325
2023-11-08 16:34:18.926,379,230107,203840,-4536,-1.3888098,-3701,-1.133153675
2023-11-08 16:34:18.926,380,230154,203835,-4838,-1.48127465,-3594,-1.10039295
2023-11-08 16:34:18.926,381,230170,203845,-5192,-1.5896606,-3425,-1.048649375
2023-11-08 16:34:18.926,382,230213,203850,-5524,-1.6913107,-3242,-0.99261935
2023-11-08 16:34:18.926,383,230233,203859,-5892,-1.8039831,-3103,-0.950061025
2023-11-08 16:34:18.926,384,230243,203876,-6078,-1.86093165,-3041,-0.931078175
2023-11-08 16:34:18.926,385,230243,203872,-5700,-1.7451975,-3012,-0.9221991
2023-11-08 16:34:18.954,386,230247,203855,-5249,-1.607112575,-2930,-0.89709275
2023-11-08 16:34:18.954,387,230223,203867,-4776,-1.4622918,-2816,-0.8621888
2023-11-08 16:34:18.954,388,230208,203852,-4218,-1.29144615,-2797,-0.856371475
2023-11-08 16:34:18.954,389,230194,203846,-4125,-1.262971875,-2864,-0.8768852
2023-11-08 16:34:18.954,390,230188,203830,-4154,-1.27185095,-2895,-0.886376625
2023-11-08 16:34:18.954,391,230152,203819,-3942,-1.20694185,-2910,-0.89096925
2023-11-08 16:34:18.954,392,230181,203842,-3803,-1.164383525,-3047,-0.932915225
2023-11-08 16:34:18.986,393,230159,203842,-3532,-1.0814101,-3332,-1.0201751
2023-11-08 16:34:18.986,394,230186,203830,-3413,-1.044975275,-3669,-1.123356075
2023-11-08 16:34:18.986,395,230175,203834,-3342,-1.02323685,-3987,-1.220719725
2023-11-08 16:34:18.986,396,230189,203847,-3462,-1.05997785,-4306,-1.31838955
2023-11-08 16:34:18.986,397,230153,203838,-3748,-1.1475439,-4629,-1.417284075
2023-11-08 16:34:18.986,398,230175,203834,-3716,-1.1377463,-4940,-1.5125045
2023-11-08 16:34:19.017,399,230154,203838,-3646,-1.11631405,-5238,-1.60374465
2023-11-08 16:34:19.017,400,230176,203835,-3860,-1.1818355,-5539,-1.695903325
2023-11-08 16:34:19.017,401,230187,203840,-4027,-1.232966725,-5783,-1.770610025
2023-11-08 16:34:19.017,402,230205,203833,-4142,-1.26817685,-5847,-1.790205225
2023-11-08 16:34:19.017,403,230169,203839,-4366,-1.33676005,-5707,-1.747340725
2023-11-08 16:34:19.017,404,230197,203842,-4384,-1.3422712,-5391,-1.650589425
2023-11-08 16:34:19.017,405,230195,203837,-4358,-1.33431065,-4947,-1.514647725
2023-11-08 16:34:19.048,406,230219,203868,-4297,-1.315633975,-4516,-1.3826863
2023-11-08 16:34:19.048,407,230216,203866,-4437,-1.358498475,-4179,-1.279505325
2023-11-08 16:34:19.048,408,230258,203862,-4781,-1.463822675,-3923,-1.201124525
2023-11-08 16:34:19.048,409,230304,203882,-5194,-1.59027295,-3756,-1.1499933
2023-11-08 16:34:19.048,410,230305,203893,-5438,-1.66497965,-3668,-1.1230499
2023-11-08 16:34:19.048,411,230323,203894,-5475,-1.676308125,-3624,-1.1095782
2023-11-08 16:34:19.080,412,230322,203897,-5667,-1.735093725,-3577,-1.095187975
2023-11-08 16:34:19.080,413,230302,203888,-5902,-1.80704485,-3529,-1.080491575
2023-11-08 16:34:19.080,414,230266,203876,-5772,-1.7672421,-3512,-1.0752866
2023-11-08 16:34:19.080,415,230211,203854,-5700,-1.7451975,-3504,-1.0728372
2023-11-08 16:34:19.080,416,230157,203806,-5564,-1.7035577,-3547,-1.086002725
2023-11-08 16:34:19.111,417,230081,203767,-4648,-1.4231014,-3714,-1.13713395
2023-11-08 16:34:19.111,418,230039,203740,-4279,-1.310122825,-3937,-1.205410975
2023-11-08 16:34:19.111,419,229922,203702,-4383,-1.341965025,-4129,-1.264196575
2023-11-08 16:34:19.111,420,229860,203676,-4063,-1.243989025,-4242,-1.29879435
2023-11-08 16:34:19.111,421,229788,203626,-3888,-1.1904084,-4276,-1.3092043
2023-11-08 16:34:19.111,422,229686,203601,-4104,-1.2565422,-4275,-1.308898125
2023-11-08 16:34:19.111,423,229630,203576,-4062,-1.24368285,-4307,-1.318695725
2023-11-08 16:34:19.142,424,229538,203528,-3936,-1.2051048,-4423,-1.354212025
2023-11-08 16:34:19.143,425,229453,203505,-3973,-1.216433275,-4632,-1.4182026
2023-11-08 16:34:19.143,426,229422,203482,-4162,-1.27430035,-4882,-1.49474635
2023-11-08 16:34:19.143,427,229377,203488,-3992,-1.2222506,-5097,-1.560573975
2023-11-08 16:34:19.143,428,229358,203469,-3814,-1.16775145,-5266,-1.61231755
2023-11-08 16:34:19.143,429,229339,203465,-3982,-1.21918885,-5473,-1.675695775
2023-11-08 16:34:19.173,430,229342,203470,-4578,-1.40166915,-5719,-1.751014825
2023-11-08 16:34:19.173,431,229347,203475,-5380,-1.6472215,-5872,-1.7978596
2023-11-08 16:34:19.173,432,229360,203489,-5764,-1.7647927,-5888,-1.8027584
2023-11-08 16:34:19.173,433,229388,203487,-5719,-1.751014825,-5723,-1.752239525
2023-11-08 16:34:19.173,434,229399,203486,-5503,-1.684881025,-5311,-1.626095425
2023-11-08 16:34:19.205,435,229406,203500,-5336,-1.6337498,-4858,-1.48739815
2023-11-08 16:34:19.205,436,229449,203501,-5215,-1.596702625,-4551,-1.393402425
2023-11-08 16:34:19.205,437,229468,203515,-5042,-1.54373435,-4292,-1.3141031
2023-11-08 16:34:19.205,438,229499,203526,-5029,-1.539754075,-4060,-1.2430705
2023-11-08 16:34:19.205,439,229521,203543,-4910,-1.50331925,-3951,-1.209697425
2023-11-08 16:34:19.205,440,229552,203538,-4725,-1.446676875,-3936,-1.2051048
2023-11-08 16:34:19.235,441,229568,203573,-4676,-1.4316743,-3953,-1.210309775
2023-11-08 16:34:19.235,442,229626,203555,-4629,-1.417284075,-4016,-1.2295988
2023-11-08 16:34:19.235,443,229645,203590,-4681,-1.433205175,-4095,-1.253786625
2023-11-08 16:34:19.235,444,229670,203575,-4413,-1.351150275,-4080,-1.249194
2023-11-08 16:34:19.235,445,229667,203596,-4277,-1.309510475,-3976,-1.2173518
2023-11-08 16:34:19.235,446,229684,203584,-4420,-1.3532935,-3957,-1.211534475
2023-11-08 16:34:19.269,447,229685,203588,-4479,-1.371357825,-4175,-1.278280625
2023-11-08 16:34:19.269,448,229674,203591,-4424,-1.3545182,-4642,-1.42126435
2023-11-08 16:34:19.269,449,229698,203597,-4422,-1.35390585,-5143,-1.574658025
2023-11-08 16:34:19.269,450,229707,203594,-4616,-1.4133038,-5477,-1.676920475
2023-11-08 16:34:19.269,451,229728,203596,-4677,-1.431980475,-5625,-1.722234375
2023-11-08 16:34:19.269,452,229735,203586,-4824,-1.4769882,-5651,-1.730194925
2023-11-08 16:34:19.269,453,229736,203606,-5087,-1.557512225,-5575,-1.706925625
2023-11-08 16:34:19.301,454,229758,203606,-5253,-1.608337275,-5392,-1.6508956
2023-11-08 16:34:19.301,455,229751,203622,-5269,-1.613236075,-5152,-1.5774136
2023-11-08 16:34:19.301,456,229774,203635,-5399,-1.653038825,-4915,-1.504850125
2023-11-08 16:34:19.301,457,229806,203622,-5503,-1.684881025,-4745,-1.452800375
2023-11-08 16:34:19.301,458,229812,203650,-5620,-1.7207035,-4692,-1.4365731
2023-11-08 16:34:19.301,459,229834,203639,-5925,-1.814086875,-4729,-1.447901575
2023-11-08 16:34:19.301,460,229859,203654,-6155,-1.884507125,-4753,-1.455249775
2023-11-08 16:34:19.333,461,229843,203652,-5943,-1.819598025,-4649,-1.423407575
2023-11-08 16:34:19.333,462,229843,203665,-5946,-1.82051655,-4465,-1.367071375
2023-11-08 16:34:19.333,463,229836,203664,-5910,-1.80949425,-4352,-1.3324736
2023-11-08 16:34:19.333,464,229850,203658,-5737,-1.756525975,-4345,-1.330330375
2023-11-08 16:34:19.333,465,229883,203685,-5577,-1.707537975,-4387,-1.343189725
2023-11-08 16:34:19.333,466,229888,203680,-5355,-1.639567125,-4457,-1.364621975
2023-11-08 16:34:19.362,467,229910,203681,-4945,-1.514035375,-4551,-1.393402425
2023-11-08 16:34:19.362,468,229910,203679,-4821,-1.476069675,-4632,-1.4182026
2023-11-08 16:34:19.362,469,229923,203681,-4604,-1.4096297,-4710,-1.44208425
2023-11-08 16:34:19.362,470,229904,203668,-4465,-1.367071375,-4837,-1.480968475
2023-11-08 16:34:19.362,471,229897,203679,-4442,-1.36002935,-5004,-1.5320997
2023-11-08 16:34:19.362,472,229898,203670,-4444,-1.3606417,-5169,-1.582618575
2023-11-08 16:34:19.362,473,229888,203660,-4449,-1.362172575,-5330,-1.63191275
2023-11-08 16:34:19.391,474,229879,203653,-4390,-1.34410825,-5471,-1.675083425
2023-11-08 16:34:19.391,475,229876,203660,-4501,-1.378093675,-5590,-1.71151825
2023-11-08 16:34:19.391,476,229865,203642,-4796,-1.4684153,-5734,-1.75560745
2023-11-08 16:34:19.391,477,229882,203652,-4750,-1.45433125,-5874,-1.79847195
2023-11-08 16:34:19.391,478,229857,203657,-4691,-1.436266925,-5943,-1.819598025
2023-11-08 16:34:19.391,479,229851,203659,-4802,-1.47025235,-5981,-1.831232675
2023-11-08 16:34:19.423,480,229855,203653,-5192,-1.5896606,-6007,-1.839193225
2023-11-08 16:34:19.423,481,229854,203662,-5805,-1.777345875,-5961,-1.825109175
2023-11-08 16:34:19.423,482,229830,203655,-6237,-1.909613475,-5822,-1.78255085
2023-11-08 16:34:19.423,483,229851,203642,-6765,-2.071273875,-5587,-1.710599725
2023-11-08 16:34:19.423,484,229836,203639,-6814,-2.08627645,-5289,-1.619359575
2023-11-08 16:34:19.458,485,229839,203643,-6571,-2.011875925,-5016,-1.5357738
2023-11-08 16:34:19.458,486,229836,203646,-6316,-1.9338013,-4805,-1.471170875
2023-11-08 16:34:19.458,487,229827,203626,-6322,-1.93563835,-4643,-1.421570525
2023-11-08 16:34:19.458,488,229826,203645,-6323,-1.935944525,-4529,-1.386666575
2023-11-08 16:34:19.458,489,229847,203649,-6325,-1.936556875,-4455,-1.364009625
2023-11-08 16:34:19.458,490,229856,203639,-6304,-1.9301272,-4407,-1.349313225
2023-11-08 16:34:19.458,491,229880,203645,-6149,-1.882670075,-4385,-1.342577375
2023-11-08 16:34:19.485,492,229861,203644,-5843,-1.788980525,-4440,-1.359417
2023-11-08 16:34:19.485,493,229865,203648,-5741,-1.757750675,-4578,-1.40166915
2023-11-08 16:34:19.485,494,229869,203653,-5448,-1.6680414,-4690,-1.43596075
2023-11-08 16:34:19.485,495,229882,203662,-4954,-1.51679095,-4733,-1.449126275
2023-11-08 16:34:19.485,496,229854,203654,-4775,-1.461985625,-4786,-1.46535355
2023-11-08 16:34:19.485,497,229882,203656,-4746,-1.45310655,-4966,-1.52046505
2023-11-08 16:34:19.516,498,229882,203645,-5071,-1.552613425,-5298,-1.62211515
2023-11-08 16:34:19.516,499,229866,203644,-4970,-1.52168975,-5718,-1.75070865
2023-11-08 16:34:19.516,500,229877,203658,-4773,-1.461373275,-6168,-1.8884874
2023-11-08 16:34:19.516,501,229887,203660,-4694,-1.43718545,-6530,-1.99932275
2023-11-08 16:34:19.516,502,229915,203656,-4638,-1.42003965,-6707,-2.053515725
2023-11-08 16:34:19.516,503,229919,203672,-4676,-1.4316743,-6721,-2.057802175
2023-11-08 16:34:19.516,504,229955,203668,-4842,-1.48249935,-6644,-2.0342267
2023-11-08 16:34:19.516,505,229939,203670,-5083,-1.556287525,-6504,-1.9913622
2023-11-08 16:34:19.547,506,229959,203667,-5246,-1.60619405,-6333,-1.939006275
2023-11-08 16:34:19.547,507,229981,203683,-5243,-1.605275525,-6194,-1.89644795
2023-11-08 16:34:19.547,508,229989,203684,-5235,-1.602826125,-6108,-1.8701169
2023-11-08 16:34:19.547,509,229996,203696,-5441,-1.665898175,-6057,-1.854501975
2023-11-08 16:34:19.547,510,229994,203683,-5198,-1.59149765,-6005,-1.838580875
2023-11-08 16:34:19.547,511,230008,203710,-5162,-1.58047535,-5832,-1.7856126
2023-11-08 16:34:19.547,512,230019,203702,-5206,-1.59394705,-5478,-1.67722665
2023-11-08 16:34:19.579,513,230050,203707,-4935,-1.510973625,-5072,-1.5529196
2023-11-08 16:34:19.579,514,230056,203717,-4814,-1.47392645,-4810,-1.47270175
2023-11-08 16:34:19.579,515,230094,203736,-4749,-1.454025075,-4775,-1.461985625
2023-11-08 16:34:19.579,516,230107,203730,-4688,-1.4353484,-4837,-1.480968475
2023-11-08 16:34:19.579,517,230112,203738,-4597,-1.407486475,-4867,-1.490153725
2023-11-08 16:34:19.610,518,230133,203742,-4562,-1.39677035,-4855,-1.486479625
2023-11-08 16:34:19.610,519,230134,203749,-4242,-1.29879435,-4807,-1.471783225
2023-11-08 16:34:19.610,520,230123,203753,-4380,-1.3410465,-4753,-1.455249775
2023-11-08 16:34:19.610,521,230144,203761,-4508,-1.3802369,-4745,-1.452800375
2023-11-08 16:34:19.610,522,230136,203732,-4311,-1.319920425,-4823,-1.476682025
2023-11-08 16:34:19.610,523,230121,203739,-3949,-1.209085075,-4955,-1.517097125
2023-11-08 16:34:19.611,524,230100,203727,-4008,-1.2271494,-5100,-1.5614925
2023-11-08 16:34:19.643,525,230108,203726,-4223,-1.292977025,-5258,-1.60986815
2023-11-08 16:34:19.643,526,230098,203734,-4400,-1.34717,-5386,-1.64905855
2023-11-08 16:34:19.643,527,230102,203719,-4333,-1.326656275,-5391,-1.650589425
2023-11-08 16:34:19.643,528,230111,203730,-4235,-1.296651125,-5305,-1.624258375
2023-11-08 16:34:19.643,529,230128,203743,-4210,-1.28899675,-5199,-1.591803825
2023-11-08 16:34:19.643,530,230138,203748,-4183,-1.280730025,-5070,-1.55230725
2023-11-08 16:34:19.672,531,230153,203745,-4220,-1.2920585,-4952,-1.5161786
2023-11-08 16:34:19.672,532,230168,203757,-4577,-1.401362975,-4879,-1.493827825
2023-11-08 16:34:19.672,533,230191,203762,-5063,-1.550164025,-4813,-1.473620275
2023-11-08 16:34:19.672,534,230219,203767,-5616,-1.7194788,-4728,-1.4475954
2023-11-08 16:34:19.672,535,230218,203779,-6670,-2.04218725,-4604,-1.4096297
2023-11-08 16:34:19.707,536,230239,203774,-7765,-2.377448875,-4449,-1.362172575
2023-11-08 16:34:19.707,537,230255,203788,-8393,-2.569726775,-4376,-1.3398218
2023-11-08 16:34:19.707,538,230263,203798,-8422,-2.57860585,-4400,-1.34717
2023-11-08 16:34:19.707,539,230300,203818,-8089,-2.476649575,-4376,-1.3398218
2023-11-08 16:34:19.707,540,230308,203803,-7725,-2.365201875,-4255,-1.302774625
2023-11-08 16:34:19.707,541,230308,203812,-7166,-2.19405005,-4152,-1.2712386
2023-11-08 16:34:19.707,542,230326,203815,-6544,-2.0036092,-4153,-1.271544775
2023-11-08 16:34:19.736,543,230329,203812,-6051,-1.852664925,-4211,-1.289302925
2023-11-08 16:34:19.736,544,230310,203810,-5458,-1.67110315,-4243,-1.299100525
2023-11-08 16:34:19.736,545,230315,203801,-5020,-1.5369985,-4247,-1.300325225
2023-11-08 16:34:19.736,546,230300,203791,-4830,-1.47882525,-4261,-1.304611675
2023-11-08 16:34:19.736,547,230289,203792,-4506,-1.37962455,-4280,-1.310429
2023-11-08 16:34:19.736,548,230243,203758,-4500,-1.3777875,-4305,-1.318083375
2023-11-08 16:34:19.766,549,230227,203768,-4785,-1.465047375,-4392,-1.3447206
2023-11-08 16:34:19.766,550,230220,203761,-5149,-1.576495075,-4611,-1.411772925
2023-11-08 16:34:19.766,551,230209,203747,-5434,-1.66375495,-5013,-1.534855275
2023-11-08 16:34:19.766,552,230208,203747,-5339,-1.634668325,-5701,-1.745503675
2023-11-08 16:34:19.766,553,230204,203748,-5380,-1.6472215,-6631,-2.030246425
2023-11-08 16:34:19.799,554,230205,203746,-5345,-1.636505375,-7542,-2.30917185
2023-11-08 16:34:19.799,555,230217,203751,-5547,-1.698352725,-8165,-2.499918875
2023-11-08 16:34:19.799,556,230257,203761,-6270,-1.91971725,-8404,-2.5730947
2023-11-08 16:34:19.799,557,230290,203757,-7445,-2.279472875,-8306,-2.54308955
2023-11-08 16:34:19.799,558,230338,203789,-8745,-2.677500375,-7921,-2.425212175
2023-11-08 16:34:19.799,559,230381,203815,-10348,-3.1682989,-7325,-2.242731875
2023-11-08 16:34:19.831,560,230429,203835,-11759,-3.600311825,-6644,-2.0342267
2023-11-08 16:34:19.831,561,230456,203834,-12876,-3.9423093,-5975,-1.829395625
2023-11-08 16:34:19.831,562,230480,203841,-13678,-4.18786165,-5426,-1.66130555
2023-11-08 16:34:19.831,563,230539,203855,-13155,-4.027732125,-5045,-1.544652875
2023-11-08 16:34:19.831,564,230525,203858,-12343,-3.779118025,-4777,-1.462597975
2023-11-08 16:34:19.831,565,230528,203870,-11085,-3.393949875,-4617,-1.413609975
2023-11-08 16:34:19.863,566,230541,203863,-9456,-2.8951908,-4610,-1.41146675
2023-11-08 16:34:19.863,567,230523,203851,-8238,-2.52226965,-4757,-1.456474475
2023-11-08 16:34:19.863,568,230515,203837,-7739,-2.369488325,-4981,-1.525057675
2023-11-08 16:34:19.863,569,230494,203866,-7267,-2.224973725,-5190,-1.58904825
2023-11-08 16:34:19.893,570,230489,203853,-6734,-2.06178245,-5364,-1.6423227
2023-11-08 16:34:19.893,571,230475,203850,-6083,-1.862462525,-5491,-1.681206925
2023-11-08 16:34:19.893,572,230456,203833,-5137,-1.572820975,-5614,-1.71886645
2023-11-08 16:34:19.893,573,230441,203832,-4419,-1.352987325,-5888,-1.8027584
2023-11-08 16:34:19.893,574,230403,203827,-3522,-1.07834835,-6450,-1.97482875
2023-11-08 16:34:19.893,575,230410,203828,-2850,-0.87259875,-7365,-2.254978875
2023-11-08 16:34:19.893,576,230380,203804,-4501,-1.378093675,-8646,-2.64718905
2023-11-08 16:34:19.922,577,230354,203804,-7806,-2.39000205,-10154,-3.10890095
2023-11-08 16:34:19.922,578,230327,203787,-11171,-3.420280925,-11666,-3.57183755
2023-11-08 16:34:19.922,579,230339,203779,-14053,-4.302677275,-12877,-3.942615475
2023-11-08 16:34:19.922,580,230332,203783,-14668,-4.4909749,-13438,-4.11437965
2023-11-08 16:34:19.922,581,230333,203763,-14642,-4.48301435,-13278,-4.06539165
2023-11-08 16:34:19.922,582,230326,203798,-14572,-4.4615821,-12500,-3.8271875
2023-11-08 16:34:19.954,583,230342,203806,-13315,-4.076720125,-11251,-3.444774925
2023-11-08 16:34:19.954,584,230383,203809,-10504,-3.2160622,-9854,-3.01704845
2023-11-08 16:34:19.954,585,230397,203810,-8753,-2.679949775,-8638,-2.64473965
2023-11-08 16:34:19.954,586,230410,203842,-8635,-2.643821125,-7686,-2.35326105
2023-11-08 16:34:19.988,587,230438,203838,-8847,-2.708730225,-6953,-2.128834775
2023-11-08 16:34:19.988,588,230449,203836,-9044,-2.7690467,-6356,-1.9460483
2023-11-08 16:34:19.988,589,230448,203846,-8893,-2.722814275,-5803,-1.776733525
2023-11-08 16:34:19.988,590,230437,203837,-8799,-2.694033825,-5229,-1.600989075
2023-11-08 16:34:19.988,591,230412,203822,-8702,-2.66433485,-4518,-1.38329865
2023-11-08 16:34:19.988,592,230390,203813,-8386,-2.56758355,-3825,-1.171119375
2023-11-08 16:34:19.988,593,230335,203783,-8195,-2.509104125,-3845,-1.177242875
2023-11-08 16:34:20.016,594,230254,203752,-7522,-2.30304835,-5077,-1.554450475
2023-11-08 16:34:20.016,595,230187,203718,-6765,-2.071273875,-7389,-2.262327075
2023-11-08 16:34:20.016,596,230091,203676,-5943,-1.819598025,-10189,-3.119617075
2023-11-08 16:34:20.016,597,230000,203650,-5318,-1.62823865,-12681,-3.882605175
2023-11-08 16:34:20.016,598,229893,203587,-4718,-1.44453365,-14464,-4.4285152
2023-11-08 16:34:20.016,599,229797,203555,-4288,-1.3128784,-15418,-4.72060615
2023-11-08 16:34:20.050,600,229714,203514,-3891,-1.191326925,-15144,-4.6367142
2023-11-08 16:34:20.050,601,229636,203496,-3094,-0.94730545,-13471,-4.124483425
2023-11-08 16:34:20.050,602,229564,203461,-2453,-0.751047275,-11197,-3.428241475
2023-11-08 16:34:20.050,603,229521,203434,-2572,-0.7874821,-9411,-2.881412925
2023-11-08 16:34:20.050,604,229446,203415,-2713,-0.830652775,-8533,-2.612591275
2023-11-08 16:34:20.050,605,229416,203410,-2708,-0.8291219,-8364,-2.5608477
2023-11-08 16:34:20.050,606,229363,203409,-3293,-1.008234275,-8525,-2.610141875
2023-11-08 16:34:20.081,607,229386,203384,-3674,-1.12488695,-8754,-2.68025595
2023-11-08 16:34:20.081,608,229389,203410,-4318,-1.32206365,-8886,-2.72067105
2023-11-08 16:34:20.081,609,229398,203421,-5448,-1.6680414,-8816,-2.6992388
2023-11-08 16:34:20.081,610,229425,203421,-6571,-2.011875925,-8531,-2.611978925
2023-11-08 16:34:20.081,611,229458,203426,-7213,-2.208440275,-9002,-2.75618735
2023-11-08 16:34:20.081,612,229459,203449,-8278,-2.53451665,-8766,-2.68393005
2023-11-08 16:34:20.081,613,229540,203457,-8815,-2.698932625,-8359,-2.559316825
2023-11-08 16:34:20.114,614,229570,203476,-8775,-2.686685625,-8056,-2.4665458
2023-11-08 16:34:20.114,615,229618,203495,-8611,-2.636472925,-7777,-2.381122975
2023-11-08 16:34:20.114,616,229654,203514,-8360,-2.559623,-7243,-2.217625525
2023-11-08 16:34:20.114,617,229701,203528,-7998,-2.44878765,-6151,-1.883282425
2023-11-08 16:34:20.114,618,229725,203540,-7431,-2.275186425,-5213,-1.596090275
2023-11-08 16:34:20.114,619,229778,203544,-6997,-2.142306475,-4463,-1.366459025
2023-11-08 16:34:20.143,620,229793,203556,-6613,-2.024735275,-4041,-1.237253175
2023-11-08 16:34:20.143,621,229809,203573,-6363,-1.948191525,-3890,-1.19102075
2023-11-08 16:34:20.143,622,229824,203573,-6258,-1.91604315,-3867,-1.183978725
2023-11-08 16:34:20.143,623,229842,203565,-6205,-1.899815875,-3922,-1.20081835
2023-11-08 16:34:20.144,624,229830,203560,-6288,-1.9252284,-3747,-1.147237725
2023-11-08 16:34:20.144,625,229840,203562,-6320,-1.935026,-3524,-1.0789607
2023-11-08 16:34:20.144,626,229854,203566,-6051,-1.852664925,-3431,-1.050486425
2023-11-08 16:34:20.175,627,229877,203581,-5256,-1.6092558,-3486,-1.06732605
2023-11-08 16:34:20.175,628,229897,203583,-4585,-1.403812375,-3688,-1.1291734
2023-11-08 16:34:20.175,629,229893,203586,-4262,-1.30491785,-5076,-1.5541443
2023-11-08 16:34:20.175,630,229925,203584,-4242,-1.29879435,-6460,-1.9778905
2023-11-08 16:34:20.175,631,229946,203587,-4564,-1.3973827,-7305,-2.236608375
2023-11-08 16:34:20.175,632,229979,203609,-5484,-1.6790637,-7735,-2.368263625
2023-11-08 16:34:20.206,633,229980,203609,-6283,-1.923697525,-7868,-2.4089849
2023-11-08 16:34:20.206,634,230046,203628,-7107,-2.175985725,-7770,-2.37897975
2023-11-08 16:34:20.206,635,230053,203625,-7920,-2.424906,-7545,-2.310090375
2023-11-08 16:34:20.206,636,230085,203624,-8452,-2.5877911,-7490,-2.29325075
2023-11-08 16:34:20.206,637,230102,203637,-8770,-2.68515475,-7719,-2.363364825
2023-11-08 16:34:20.237,638,230111,203662,-8718,-2.66923365,-7824,-2.3955132
2023-11-08 16:34:20.237,639,230148,203675,-7941,-2.431335675,-7815,-2.392757625
2023-11-08 16:34:20.237,640,230165,203667,-6790,-2.07892825,-7711,-2.360915425
2023-11-08 16:34:20.237,641,230164,203672,-6040,-1.849297,-7533,-2.306416275
2023-11-08 16:34:20.237,642,230185,203687,-5469,-1.674471075,-7314,-2.23936395
2023-11-08 16:34:20.237,643,230182,203683,-4866,-1.48984755,-7069,-2.164351075
2023-11-08 16:34:20.237,644,230169,203671,-4629,-1.417284075,-6800,-2.08199
2023-11-08 16:34:20.270,645,230176,203651,-4404,-1.3483947,-6511,-1.993505425
2023-11-08 16:34:20.270,646,230144,203652,-4263,-1.305224025,-6220,-1.9044085
2023-11-08 16:34:20.270,647,230154,203667,-4202,-1.28654735,-5947,-1.820822725
2023-11-08 16:34:20.270,648,230133,203650,-3716,-1.1377463,-5709,-1.747953075
2023-11-08 16:34:20.270,649,230129,203633,-3532,-1.0814101,-5530,-1.69314775
2023-11-08 16:34:20.270,650,230102,203625,-3560,-1.089983,-5426,-1.66130555
2023-11-08 16:34:20.300,651,230078,203613,-3848,-1.1781614,-5410,-1.65640675
2023-11-08 16:34:20.300,652,230079,203621,-4401,-1.347476175,-5483,-1.678757525
2023-11-08 16:34:20.300,653,230073,203612,-4588,-1.4047309,-5636,-1.7256023
2023-11-08 16:34:20.300,654,230085,203621,-4476,-1.3704393,-5887,-1.802452225
2023-11-08 16:34:20.300,655,230075,203610,-5141,-1.574045675,-6905,-2.114138375
2023-11-08 16:34:20.300,656,230084,203625,-6265,-1.918186375,-7248,-2.2191564
2023-11-08 16:34:20.300,657,230114,203627,-7060,-2.1615955,-7139,-2.185783325
2023-11-08 16:34:20.300,658,230115,203618,-7498,-2.29570015,-6968,-2.1334274
2023-11-08 16:34:20.332,659,230124,203614,-7814,-2.39245145,-7095,-2.172311625
2023-11-08 16:34:20.332,660,230095,203614,-7395,-2.264164125,-7182,-2.19894885
2023-11-08 16:34:20.332,661,230104,203607,-6206,-1.90012205,-7155,-2.190682125
2023-11-08 16:34:20.332,662,230087,203606,-5120,-1.567616,-6638,-2.03238965
2023-11-08 16:34:20.332,663,230065,203601,-4347,-1.330942725,-5879,-1.800002825
2023-11-08 16:34:20.332,664,230044,203600,-4032,-1.2344976,-5441,-1.665898175
2023-11-08 16:34:20.332,665,230037,203580,-3871,-1.185203425,-5189,-1.588742075
2023-11-08 16:34:20.364,666,230048,203594,-3726,-1.14080805,-5056,-1.5480208
2023-11-08 16:34:20.364,667,230026,203587,-3543,-1.084778025,-5081,-1.555675175
2023-11-08 16:34:20.364,668,230044,203592,-3387,-1.037014725,-4738,-1.45065715
2023-11-08 16:34:20.364,669,230037,203586,-3287,-1.006397225,-4443,-1.360335525
2023-11-08 16:34:20.364,670,230044,203584,-3297,-1.009458975,-4241,-1.298488175
2023-11-08 16:34:20.395,671,230027,203576,-3260,-0.9981305,-4131,-1.264808925
2023-11-08 16:34:20.395,672,230026,203568,-3240,-0.992007,-4120,-1.261441
2023-11-08 16:34:20.395,673,230016,203564,-3562,-1.09059535,-4214,-1.29022145
2023-11-08 16:34:20.395,674,230045,203582,-4037,-1.236028475,-4398,-1.34655765
2023-11-08 16:34:20.395,675,230044,203573,-4286,-1.31226605,-4645,-1.422182875
2023-11-08 16:34:20.395,676,230066,203601,-4831,-1.479131425,-4942,-1.51311685
2023-11-08 16:34:20.395,677,230072,203579,-5659,-1.732644325,-5490,-1.68090075
2023-11-08 16:34:20.424,678,230115,203611,-6325,-1.936556875,-5773,-1.767548275
2023-11-08 16:34:20.424,679,230143,203615,-6845,-2.095767875,-5844,-1.7892867
2023-11-08 16:34:20.424,680,230171,203625,-7523,-2.303354525,-6008,-1.8394994
2023-11-08 16:34:20.424,681,230219,203650,-8070,-2.47083225,-6069,-1.858176075
2023-11-08 16:34:20.424,682,230228,203647,-8383,-2.566665025,-6039,-1.848990825
2023-11-08 16:34:20.424,683,230276,203651,-8227,-2.518901725,-5924,-1.8137807
2023-11-08 16:34:20.456,684,230265,203682,-7577,-2.319887975,-5259,-1.610174325
2023-11-08 16:34:20.456,685,230308,203666,-7053,-2.159452275,-4791,-1.466884425
2023-11-08 16:34:20.456,686,230306,203683,-6479,-1.983707825,-4583,-1.403200025
2023-11-08 16:34:20.456,687,230350,203673,-5547,-1.698352725,-4475,-1.370133125
2023-11-08 16:34:20.456,688,230332,203687,-4672,-1.4304496,-4428,-1.3557429
2023-11-08 16:34:20.490,689,230327,203676,-4169,-1.276443575,-4086,-1.25103105
2023-11-08 16:34:20.490,690,230318,203677,-4204,-1.2871597,-3784,-1.1585662
2023-11-08 16:34:20.490,691,230310,203676,-3973,-1.216433275,-3585,-1.097637375
2023-11-08 16:34:20.490,692,230295,203673,-3468,-1.0618149,-3506,-1.07344955
2023-11-08 16:34:20.490,693,230311,203658,-3450,-1.05630375,-3543,-1.084778025
2023-11-08 16:34:20.490,694,230303,203669,-3379,-1.034565325,-3681,-1.127030175
2023-11-08 16:34:20.490,695,230317,203673,-3364,-1.0299727,-3893,-1.191939275
2023-11-08 16:34:20.519,696,230326,203680,-3443,-1.054160525,-4156,-1.2724633
2023-11-08 16:34:20.519,697,230332,203687,-3878,-1.18734665,-4463,-1.366459025
2023-11-08 16:34:20.519,698,230389,203684,-4581,-1.402587675,-5300,-1.6227275
2023-11-08 16:34:20.519,699,230417,203697,-5910,-1.80949425,-6221,-1.904714675
2023-11-08 16:34:20.519,700,230445,203713,-7136,-2.1848648,-6766,-2.07158005
2023-11-08 16:34:20.519,701,230452,203726,-7829,-2.397044075,-6907,-2.114750725
2023-11-08 16:34:20.547,702,230476,203740,-7804,-2.3893897,-6819,-2.087807325
2023-11-08 16:34:20.547,703,230477,203732,-7322,-2.24181335,-6845,-2.095767875
2023-11-08 16:34:20.547,704,230436,203723,-6434,-1.96992995,-7029,-2.152104075
2023-11-08 16:34:20.547,705,230447,203730,-5327,-1.630994225,-7075,-2.166188125
2023-11-08 16:34:20.547,706,230435,203712,-4311,-1.319920425,-6994,-2.14138795
2023-11-08 16:34:20.547,707,230435,203707,-3806,-1.16530205,-6818,-2.08750115
2023-11-08 16:34:20.547,708,230424,203706,-3591,-1.099474425,-5907,-1.808575725
2023-11-08 16:34:20.547,709,230436,203707,-3476,-1.0642643,-5250,-1.60741875
2023-11-08 16:34:20.579,710,230447,203694,-3146,-0.96322655,-4849,-1.484642575
2023-11-08 16:34:20.579,711,230422,203715,-3046,-0.93260905,-4651,-1.424019925
2023-11-08 16:34:20.579,712,230425,203704,-3177,-0.972717975,-4590,-1.40534325
2023-11-08 16:34:20.579,713,230459,203703,-2884,-0.8830087,-4536,-1.3888098
2023-11-08 16:34:20.579,714,230446,203710,-2751,-0.842287425,-4203,-1.286853525
2023-11-08 16:34:20.579,715,230476,203728,-2879,-0.881477825,-3979,-1.218270325
2023-11-08 16:34:20.579,716,230487,203717,-2842,-0.87014935,-3907,-1.196225725
2023-11-08 16:34:20.610,717,230447,203706,-2746,-0.84075655,-3999,-1.224393825
2023-11-08 16:34:20.610,718,230455,203721,-2523,-0.772479525,-4225,-1.293589375
2023-11-08 16:34:20.610,719,230468,203709,-2646,-0.81013905,-4862,-1.48862285
2023-11-08 16:34:20.610,720,230454,203713,-2716,-0.8315713,-5866,-1.79602255
2023-11-08 16:34:20.610,721,230449,203706,-2555,-0.782277125,-6154,-1.88420095
2023-11-08 16:34:20.643,722,230464,203702,-2633,-0.806158775,-5990,-1.83398825
2023-11-08 16:34:20.643,723,230449,203718,-2915,-0.892500125,-5746,-1.75928155
2023-11-08 16:34:20.643,724,230475,203718,-3062,-0.93750785,-5760,-1.763568
2023-11-08 16:34:20.675,725,230473,203712,-3143,-0.962308025,-5822,-1.78255085
2023-11-08 16:34:20.675,726,230473,203711,-3483,-1.066407525,-5446,-1.66742905
2023-11-08 16:34:20.675,727,230507,203717,-3921,-1.200512175,-4817,-1.474844975
2023-11-08 16:34:20.675,728,230516,203722,-4797,-1.468721475,-4375,-1.339515625
2023-11-08 16:34:20.675,729,230518,203731,-5448,-1.6680414,-4179,-1.279505325
2023-11-08 16:34:20.675,730,230547,203723,-5860,-1.7941855,-4052,-1.2406211
2023-11-08 16:34:20.706,731,230551,203742,-6140,-1.8799145,-3963,-1.213371525
2023-11-08 16:34:20.706,732,230588,203742,-6330,-1.93808775,-3872,-1.1855096
2023-11-08 16:34:20.706,733,230573,203751,-6334,-1.93931245,-3508,-1.0740619
2023-11-08 16:34:20.706,734,230572,203736,-5853,-1.792042275,-3234,-0.99016995
2023-11-08 16:34:20.706,735,230565,203738,-5411,-1.656712925,-3054,-0.93505845
2023-11-08 16:34:20.706,736,230564,203732,-5088,-1.5578184,-2953,-0.904134775
2023-11-08 16:34:20.736,737,230575,203746,-4646,-1.42248905,-2901,-0.888213675
2023-11-08 16:34:20.736,738,230574,203733,-4207,-1.288078225,-2864,-0.8768852
2023-11-08 16:34:20.736,739,230588,203745,-4022,-1.23143585,-2821,-0.863719675
2023-11-08 16:34:20.736,740,230576,203747,-3751,-1.148462425,-2773,-0.849023275
2023-11-08 16:34:20.736,741,230595,203749,-3375,-1.033340625,-2740,-0.8389195
2023-11-08 16:34:20.736,742,230594,203748,-3015,-0.923117625,-2740,-0.8389195
2023-11-08 16:34:20.736,743,230614,203760,-2881,-0.882090175,-2781,-0.851472675
2023-11-08 16:34:20.767,744,230620,203749,-2964,-0.9075027,-2864,-0.8768852
2023-11-08 16:34:20.767,745,230609,203754,-2967,-0.908421225,-2995,-0.916994125
2023-11-08 16:34:20.767,746,230616,203748,-3276,-1.0030293,-3178,-0.97302415
2023-11-08 16:34:20.767,747,230611,203752,-3733,-1.142951275,-3406,-1.04283205
2023-11-08 16:34:20.767,748,230620,203752,-3650,-1.11753875,-3676,-1.1254993
2023-11-08 16:34:20.767,749,230651,203764,-3446,-1.05507905,-3994,-1.22286295
2023-11-08 16:34:20.767,750,230638,203766,-3618,-1.10774115,-4341,-1.329105675
2023-11-08 16:34:20.800,751,230655,203760,-3685,-1.128254875,-4678,-1.43228665
2023-11-08 16:34:20.800,752,230658,203767,-3507,-1.073755725,-4970,-1.52168975
2023-11-08 16:34:20.800,753,230669,203772,-3346,-1.02446155,-5201,-1.592416175
2023-11-08 16:34:20.800,754,230664,203757,-3515,-1.076205125,-5362,-1.64171035
2023-11-08 16:34:20.800,755,230647,203773,-3680,-1.126724,-5450,-1.66865375
2023-11-08 16:34:20.831,756,230666,203754,-3656,-1.1193758,-5462,-1.67232785
2023-11-08 16:34:20.831,757,230627,203735,-3356,-1.0275233,-5397,-1.652426475
2023-11-08 16:34:20.831,758,230593,203720,-3010,-0.92158675,-5256,-1.6092558
2023-11-08 16:34:20.831,759,230546,203710,-2799,-0.856983825,-5041,-1.543428175
2023-11-08 16:34:20.831,760,230466,203674,-2622,-0.80279085,-4763,-1.458311525
2023-11-08 16:34:20.831,761,230415,203658,-2652,-0.8119761,-4448,-1.3618664
2023-11-08 16:34:20.831,762,230366,203615,-3330,-1.01956275,-4135,-1.266033625
2023-11-08 16:34:20.863,763,230300,203589,-3929,-1.202961575,-3862,-1.18244785
2023-11-08 16:34:20.863,764,230245,203564,-4932,-1.5100551,-3653,-1.118457275
2023-11-08 16:34:20.863,765,230183,203531,-6758,-2.06913065,-3508,-1.0740619
2023-11-08 16:34:20.863,766,230130,203511,-8321,-2.547682175,-3415,-1.045587625
2023-11-08 16:34:20.863,767,230095,203483,-9634,-2.94968995,-3362,-1.02936035
2023-11-08 16:34:20.863,768,230054,203471,-11168,-3.4193624,-3339,-1.022318325
2023-11-08 16:34:20.892,769,230027,203473,-12835,-3.929756125,-3336,-1.0213998
2023-11-08 16:34:20.892,770,230006,203453,-14365,-4.398203875,-3348,-1.0250739
2023-11-08 16:34:20.892,771,229966,203435,-15983,-4.893595025,-3379,-1.034565325
2023-11-08 16:34:20.892,772,229961,203441,-17515,-5.362655125,-3429,-1.049874075
2023-11-08 16:34:20.892,773,229953,203438,-18659,-5.712919325,-3490,-1.06855075
2023-11-08 16:34:20.892,774,229942,203434,-19070,-5.83875725,-3539,-1.083553325
2023-11-08 16:34:20.892,775,229949,203447,-19144,-5.8614142,-3549,-1.086615075
2023-11-08 16:34:20.892,776,229946,203436,-18244,-5.5858567,-3519,-1.077429825
2023-11-08 16:34:20.928,777,229945,203424,-16261,-4.978711675,-3457,-1.058446975
2023-11-08 16:34:20.928,778,229935,203426,-14183,-4.342480025,-3374,-1.03303445
2023-11-08 16:34:20.928,779,229916,203428,-12475,-3.819533125,-3297,-1.009458975
2023-11-08 16:34:20.928,780,229920,203423,-10908,-3.3397569,-3261,-0.998436675
2023-11-08 16:34:20.928,781,229904,203420,-7974,-2.44143945,-3303,-1.011296025
2023-11-08 16:34:20.928,782,229885,203400,-3899,-1.193776325,-3458,-1.05875315
2023-11-08 16:34:20.928,783,229892,203405,-543,-0.166253025,-3741,-1.145400675
2023-11-08 16:34:20.957,784,229889,203411,1090,0.33373075,-5643,-1.727745525
2023-11-08 16:34:20.957,785,229882,203405,2211,0.676952925,-8064,-2.4689952
2023-11-08 16:34:20.957,786,229868,203399,2963,0.907196525,-10157,-3.109819475
2023-11-08 16:34:20.957,787,229860,203392,3332,1.0201751,-12050,-3.68940875
2023-11-08 16:34:20.957,788,229861,203401,3414,1.04528145,-13798,-4.22460265
2023-11-08 16:34:20.957,789,229883,203402,3257,0.997211975,-15424,-4.7224432
2023-11-08 16:34:20.987,790,229903,203408,2726,0.83463305,-16842,-5.15659935
2023-11-08 16:34:20.987,791,229932,203408,1639,0.501820825,-17921,-5.486962175
2023-11-08 16:34:20.987,792,229960,203443,-324,-0.0992007,-18559,-5.682301825
2023-11-08 16:34:20.987,793,230005,203461,-2633,-0.806158775,-18556,-5.6813833
2023-11-08 16:34:20.987,794,230067,203479,-4692,-1.4365731,-17765,-5.439198875
2023-11-08 16:34:20.987,795,230102,203498,-6364,-1.9484977,-16436,-5.0322923
2023-11-08 16:34:20.987,796,230161,203507,-7895,-2.417251625,-15156,-4.6403883
2023-11-08 16:34:20.987,797,230200,203534,-9703,-2.970816025,-13979,-4.280020325
2023-11-08 16:34:21.017,798,230234,203559,-11463,-3.509684025,-11644,-3.5651017
2023-11-08 16:34:21.017,799,230269,203567,-13269,-4.062636075,-8263,-2.529924025
2023-11-08 16:34:21.017,800,230296,203584,-13799,-4.224908825,-4838,-1.48127465
2023-11-08 16:34:21.017,801,230331,203583,-13418,-4.10825615,-1988,-0.6086759
2023-11-08 16:34:21.017,802,230335,203600,-12456,-3.8137158,229,0.070114075
2023-11-08 16:34:21.017,803,230339,203577,-11154,-3.41507595,1953,0.597959775
2023-11-08 16:34:21.051,804,230335,203583,-9459,-2.896109325,3142,0.96200185
2023-11-08 16:34:21.051,805,230317,203574,-7777,-2.381122975,3675,1.125193125
2023-11-08 16:34:21.051,806,230330,203574,-5537,-1.695290975,3550,1.08692125
2023-11-08 16:34:21.051,807,230282,203555,-3156,-0.9662883,2939,0.899848325
2023-11-08 16:34:21.051,808,230293,203544,-709,-0.217078075,2044,0.6258217
2023-11-08 16:34:21.079,809,230270,203539,1213,0.371390275,998,0.30556265
2023-11-08 16:34:21.079,810,230238,203518,2286,0.69991605,112,0.0342916
2023-11-08 16:34:21.079,811,230223,203506,2767,0.847186225,-607,-0.185848225
2023-11-08 16:34:21.079,812,230183,203495,3142,0.96200185,-2573,-0.787788275
2023-11-08 16:34:21.079,813,230162,203487,3406,1.04283205,-5096,-1.5602678
2023-11-08 16:34:21.079,814,230158,203489,3451,1.056609925,-7517,-2.301517475
2023-11-08 16:34:21.113,815,230174,203481,2979,0.912095325,-9649,-2.954282575
2023-11-08 16:34:21.113,816,230170,203498,1921,0.588162175,-11334,-3.47018745
2023-11-08 16:34:21.113,817,230178,203492,-17,-0.005204975,-12394,-3.79473295
2023-11-08 16:34:21.113,818,230213,203498,-1851,-0.566729925,-12824,-3.9263882
2023-11-08 16:34:21.113,819,230237,203529,-4036,-1.2357223,-12784,-3.9141412
2023-11-08 16:34:21.113,820,230297,203537,-6091,-1.864911925,-12317,-3.771157475
2023-11-08 16:34:21.143,821,230346,203564,-8251,-2.526249925,-11371,-3.481515925
2023-11-08 16:34:21.143,822,230375,203580,-10864,-3.3262852,-10054,-3.07828345
2023-11-08 16:34:21.143,823,230401,203588,-13519,-4.139179825,-8754,-2.68025595
2023-11-08 16:34:21.143,824,230416,203587,-15482,-4.74020135,-6810,-2.08505175
2023-11-08 16:34:21.143,825,230427,203601,-16307,-4.992795725,-3995,-1.223169125
2023-11-08 16:34:21.143,826,230410,203587,-16145,-4.943195375,-1547,-0.473652725
2023-11-08 16:34:21.143,827,230396,203587,-15567,-4.766226225,254,0.07776845
2023-11-08 16:34:21.143,828,230380,203576,-14594,-4.46831795,1539,0.471203325
2023-11-08 16:34:21.175,829,230376,203575,-13367,-4.092641225,2492,0.7629881
2023-11-08 16:34:21.175,830,230357,203550,-12089,-3.701349575,3150,0.96445125
2023-11-08 16:34:21.175,831,230369,203556,-11002,-3.36853735,3397,1.040076475
2023-11-08 16:34:21.175,832,230370,203560,-10277,-3.146560475,3142,0.96200185
2023-11-08 16:34:21.175,833,230350,203546,-9402,-2.87865735,2399,0.734513825
2023-11-08 16:34:21.175,834,230333,203547,-8258,-2.52839315,1390,0.42558325
2023-11-08 16:34:21.175,835,230335,203532,-7107,-2.175985725,700,0.2143225
2023-11-08 16:34:21.208,836,230281,203525,-6544,-2.0036092,155,0.047457125
2023-11-08 16:34:21.208,837,230304,203505,-6239,-1.910225825,-2026,-0.62031055
2023-11-08 16:34:21.208,838,230263,203507,-5795,-1.774284125,-4836,-1.4806623
2023-11-08 16:34:21.208,839,230247,203505,-5608,-1.7170294,-7732,-2.3673451
2023-11-08 16:34:21.208,840,230235,203467,-5826,-1.78377555,-10541,-3.227390675
2023-11-08 16:34:21.235,841,230216,203491,-5597,-1.713661475,-12939,-3.961598325
2023-11-08 16:34:21.235,842,230183,203450,-5162,-1.58047535,-14641,-4.482708175
2023-11-08 16:34:21.235,843,230179,203456,-4355,-1.333392125,-15598,-4.77571765
2023-11-08 16:34:21.270,844,230155,203437,-3466,-1.06120255,-15924,-4.8755307
2023-11-08 16:34:21.270,845,230132,203445,-2685,-0.822079875,-15668,-4.7971499
2023-11-08 16:34:21.270,846,230168,203444,-2054,-0.62888345,-14833,-4.541493775
2023-11-08 16:34:21.270,847,230182,203449,-1568,-0.4800824,-13584,-4.1590812
2023-11-08 16:34:21.270,848,230219,203451,-1390,-0.42558325,-12369,-3.787078575
2023-11-08 16:34:21.270,849,230248,203505,-1733,-0.530601275,-11724,-3.5895957
2023-11-08 16:34:21.297,850,230285,203492,-2386,-0.73053355,-11332,-3.4695751
2023-11-08 16:34:21.297,851,230342,203523,-3342,-1.02323685,-10383,-3.179015025
2023-11-08 16:34:21.297,852,230377,203545,-4596,-1.4071803,-9294,-2.84559045
2023-11-08 16:34:21.297,853,230395,203554,-5700,-1.7451975,-8332,-2.5510501
2023-11-08 16:34:21.297,854,230424,203562,-6672,-2.0427996,-7508,-2.2987619
2023-11-08 16:34:21.297,855,230472,203570,-7469,-2.286821075,-6816,-2.0868888
2023-11-08 16:34:21.332,856,230479,203585,-8448,-2.5865664,-6394,-1.95768295
2023-11-08 16:34:21.332,857,230499,203590,-9380,-2.8719215,-6325,-1.936556875
2023-11-08 16:34:21.332,858,230508,203596,-9937,-3.042460975,-6421,-1.965949675
2023-11-08 16:34:21.332,859,230532,203598,-10193,-3.120841775,-6440,-1.971767
2023-11-08 16:34:21.332,860,230525,203596,-10044,-3.0752217,-6333,-1.939006275
2023-11-08 16:34:21.332,861,230523,203602,-9280,-2.841304,-6229,-1.907164075
2023-11-08 16:34:21.332,862,230529,203593,-7862,-2.40714785,-5810,-1.77887675
2023-11-08 16:34:21.361,863,230541,203599,-6811,-2.085357925,-5311,-1.626095425
2023-11-08 16:34:21.361,864,230571,203596,-6225,-1.905939375,-4676,-1.4316743
2023-11-08 16:34:21.361,865,230572,203602,-5768,-1.7660174,-3773,-1.155198275
2023-11-08 16:34:21.361,866,230592,203599,-5495,-1.682431625,-3184,-0.9748612
2023-11-08 16:34:21.361,867,230581,203607,-5142,-1.57435185,-2985,-0.913932375
2023-11-08 16:34:21.361,868,230597,203600,-4778,-1.46290415,-3072,-0.9405696
2023-11-08 16:34:21.361,869,230568,203601,-4131,-1.264808925,-3104,-0.9503672
2023-11-08 16:34:21.393,870,230580,203594,-3486,-1.06732605,-3002,-0.91913735
2023-11-08 16:34:21.393,871,230561,203588,-2636,-0.8070773,-3046,-0.93260905
2023-11-08 16:34:21.393,872,230556,203582,-2080,-0.636844,-4385,-1.342577375
2023-11-08 16:34:21.393,873,230556,203579,-1820,-0.5572385,-5991,-1.834294425
2023-11-08 16:34:21.393,874,230543,203583,-1671,-0.511618425,-8600,-2.633105
2023-11-08 16:34:21.425,875,230556,203579,-1684,-0.5155987,-8670,-2.65453725
2023-11-08 16:34:21.425,876,230569,203592,-2154,-0.65950095,-8788,-2.6906659
2023-11-08 16:34:21.425,877,230595,203598,-2927,-0.896174225,-8926,-2.73291805
2023-11-08 16:34:21.425,878,230615,203618,-3636,-1.1132523,-9045,-2.769352875
2023-11-08 16:34:21.425,879,230632,203620,-4610,-1.41146675,-9101,-2.786498675
2023-11-08 16:34:21.425,880,230649,203616,-5651,-1.730194925,-9068,-2.7763949
2023-11-08 16:34:21.425,881,230657,203621,-6430,-1.96870525,-8946,-2.73904155
2023-11-08 16:34:21.457,882,230655,203617,-6755,-2.068212125,-8745,-2.677500375
2023-11-08 16:34:21.457,883,230664,203631,-6259,-1.916349325,-8189,-2.507267075
2023-11-08 16:34:21.457,884,230650,203612,-5815,-1.780407625,-7033,-2.153328775
2023-11-08 16:34:21.457,885,230662,203619,-5314,-1.62701395,-6267,-1.918798725
2023-11-08 16:34:21.457,886,230653,203624,-5103,-1.562411025,-5730,-1.75438275
2023-11-08 16:34:21.457,887,230657,203640,-5230,-1.60129525,-5261,-1.610786675
2023-11-08 16:34:21.488,888,230653,203621,-4853,-1.485867275,-4764,-1.4586177
2023-11-08 16:34:21.488,889,230673,203625,-4578,-1.40166915,-4280,-1.310429
2023-11-08 16:34:21.488,890,230683,203633,-4332,-1.3263501,-3870,-1.18489725
2023-11-08 16:34:21.488,891,230717,203633,-4144,-1.2687892,-3519,-1.077429825
2023-11-08 16:34:21.488,892,230705,203633,-4608,-1.4108544,-3264,-0.9993552
2023-11-08 16:34:21.488,893,230719,203641,-4948,-1.5149539,-3184,-0.9748612
2023-11-08 16:34:21.488,894,230723,203641,-4931,-1.509748925,-3149,-0.964145075
2023-11-08 16:34:21.488,895,230738,203642,-4566,-1.39799505,-2942,-0.90076685
2023-11-08 16:34:21.520,896,230731,203636,-4084,-1.2504187,-2840,-0.869537
2023-11-08 16:34:21.520,897,230722,203627,-3501,-1.071918675,-2846,-0.87137405
2023-11-08 16:34:21.520,898,230716,203611,-2792,-0.8548406,-2967,-0.908421225
2023-11-08 16:34:21.520,899,230676,203616,-2182,-0.66807385,-3927,-1.202349225
2023-11-08 16:34:21.520,900,230664,203602,-1300,-0.3980275,-4858,-1.48739815
2023-11-08 16:34:21.520,901,230632,203574,-375,-0.114815625,-5234,-1.60251995
2023-11-08 16:34:21.520,902,230645,203577,118,0.03612865,-5236,-1.6031323
2023-11-08 16:34:21.550,903,230640,203586,183,0.056030025,-5099,-1.561186325
2023-11-08 16:34:21.550,904,230632,203585,392,0.1200206,-5063,-1.550164025
2023-11-08 16:34:21.550,905,230671,203594,362,0.11083535,-5278,-1.61599165
2023-11-08 16:34:21.550,906,230690,203606,19,0.005817325,-5432,-1.6631426
2023-11-08 16:34:21.550,907,230705,203607,-899,-0.275251325,-5495,-1.682431625
2023-11-08 16:34:21.550,908,230750,203624,-2160,-0.661338,-5476,-1.6766143
2023-11-08 16:34:21.582,909,230753,203637,-2853,-0.873517275,-5390,-1.65028325
2023-11-08 16:34:21.582,910,230755,203645,-3518,-1.07712365,-5256,-1.6092558
2023-11-08 16:34:21.582,911,230754,203641,-3991,-1.221944425,-5095,-1.559961625
2023-11-08 16:34:21.582,912,230749,203645,-3590,-1.09916825,-4925,-1.507911875
2023-11-08 16:34:21.582,913,230750,203636,-2547,-0.779827725,-4762,-1.45800535
2023-11-08 16:34:21.582,914,230740,203638,-1881,-0.575915175,-4613,-1.412385275
2023-11-08 16:34:21.582,915,230768,203641,-1474,-0.45130195,-4463,-1.366459025
2023-11-08 16:34:21.582,916,230784,203650,-948,-0.2902539,-4293,-1.314409275
2023-11-08 16:34:21.610,917,230801,203656,-623,-0.190747025,-4074,-1.24735695
2023-11-08 16:34:21.610,918,230786,203653,-303,-0.092771025,-3779,-1.157035325
2023-11-08 16:34:21.610,919,230815,203646,152,0.0465386,-2934,-0.89831745
2023-11-08 16:34:21.610,920,230796,203657,531,0.162578925,-1781,-0.545297675
2023-11-08 16:34:21.610,921,230829,203661,765,0.234223875,-1162,-0.35577535
2023-11-08 16:34:21.610,922,230824,203675,962,0.29454035,-850,-0.26024875
2023-11-08 16:34:21.642,923,230835,203659,955,0.292397125,-767,-0.234836225
2023-11-08 16:34:21.642,924,230835,203656,795,0.243409125,-895,-0.274026625
2023-11-08 16:34:21.642,925,230829,203659,331,0.101343925,-959,-0.293621825
2023-11-08 16:34:21.642,926,230831,203653,-186,-0.05694855,-789,-0.241572075
2023-11-08 16:34:21.642,927,230849,203668,-872,-0.2669846,-754,-0.23085595
2023-11-08 16:34:21.672,928,230842,203662,-1515,-0.463855125,-867,-0.265453725
2023-11-08 16:34:21.672,929,230871,203682,-1988,-0.6086759,-1628,-0.4984529
2023-11-08 16:34:21.672,930,230862,203688,-2485,-0.760844875,-2104,-0.6441922
2023-11-08 16:34:21.672,931,230861,203687,-2684,-0.8217737,-2091,-0.640211925
2023-11-08 16:34:21.672,932,230866,203682,-2237,-0.684913475,-1982,-0.60683885
2023-11-08 16:34:21.672,933,230847,203656,-1231,-0.376901425,-2081,-0.637150175
2023-11-08 16:34:21.705,934,230784,203628,-14,-0.00428645,-2183,-0.668380025
2023-11-08 16:34:21.705,935,230724,203605,1032,0.3159726,-2202,-0.67419735
2023-11-08 16:34:21.705,936,230662,203570,1868,0.5719349,-2124,-0.6503157
2023-11-08 16:34:21.705,937,230593,203533,2488,0.7617634,-1725,-0.528151875
2023-11-08 16:34:21.705,938,230503,203511,2510,0.76849925,-1169,-0.357918575
2023-11-08 16:34:21.705,939,230433,203461,2376,0.7274718,-794,-0.24310295
2023-11-08 16:34:21.737,940,230344,203430,2107,0.645110725,-606,-0.18554205
2023-11-08 16:34:21.737,941,230255,203379,1837,0.562443475,-459,-0.140534325
2023-11-08 16:34:21.737,942,230176,203353,1417,0.433849975,-107,-0.032760725
2023-11-08 16:34:21.737,943,230091,203321,717,0.219527475,140,0.0428645
2023-11-08 16:34:21.737,944,230004,203294,499,0.152781325,261,0.079911675
2023-11-08 16:34:21.767,945,229930,203255,710,0.21738425,258,0.07899315
2023-11-08 16:34:21.767,946,229896,203251,313,0.095832775,154,0.04715095
2023-11-08 16:34:21.767,947,229872,203222,-652,-0.1996261,-25,-0.007654375
2023-11-08 16:34:21.767,948,229859,203214,-1447,-0.443035225,-256,-0.0783808
2023-11-08 16:34:21.767,949,229835,203198,-2026,-0.62031055,-510,-0.15614925
2023-11-08 16:34:21.767,950,229835,203230,-2756,-0.8438183,-753,-0.230549775
2023-11-08 16:34:21.797,951,229834,203214,-3282,-1.00486635,-954,-0.29209095
2023-11-08 16:34:21.797,952,229812,203207,-3473,-1.063345775,-1078,-0.33005665
2023-11-08 16:34:21.797,953,229854,203225,-3772,-1.1548921,-1091,-0.334036925
2023-11-08 16:34:21.797,954,229869,203224,-4006,-1.22653705,-974,-0.29821445
2023-11-08 16:34:21.797,955,229903,203249,-4417,-1.352374975,253,0.077462275
2023-11-08 16:34:21.797,956,229919,203268,-4569,-1.398913575,1172,0.3588371
2023-11-08 16:34:21.829,957,229957,203256,-4563,-1.397076525,1499,0.458956325
2023-11-08 16:34:21.829,958,229953,203283,-4319,-1.322369825,1454,0.44517845
2023-11-08 16:34:21.829,959,229975,203277,-3793,-1.161321775,1247,0.381800225
2023-11-08 16:34:21.829,960,229993,203290,-3445,-1.054772875,1120,0.342916
2023-11-08 16:34:21.829,961,229995,203280,-2752,-0.8425936,1339,0.409968325
2023-11-08 16:34:21.829,962,229993,203284,-1573,-0.481613275,1524,0.4666107
2023-11-08 16:34:21.829,963,230004,203260,-991,-0.303419425,1601,0.490186175
2023-11-08 16:34:21.861,964,230004,203287,-246,-0.07531905,1537,0.470590975
2023-11-08 16:34:21.861,965,230007,203273,31,0.009491425,1319,0.403844825
2023-11-08 16:34:21.861,966,230029,203260,-310,-0.09491425,975,0.298520625
2023-11-08 16:34:21.861,967,230031,203261,-435,-0.133186125,324,0.0992007
2023-11-08 16:34:21.861,968,230015,203276,-628,-0.1922779,-501,-0.153393675
2023-11-08 16:34:21.861,969,230005,203259,-92,-0.0281681,-1238,-0.37904465
2023-11-08 16:34:21.861,970,230021,203276,572,0.1751321,-1871,-0.572853425
2023-11-08 16:34:21.892,971,230039,203271,582,0.17819385,-2396,-0.7335953
2023-11-08 16:34:21.892,972,230024,203275,36,0.0110223,-2797,-0.856371475
2023-11-08 16:34:21.892,973,230064,203279,-780,-0.2388165,-3038,-0.93015965
2023-11-08 16:34:21.892,974,230074,203298,-1404,-0.4298697,-3107,-0.951285725
2023-11-08 16:34:21.892,975,230103,203303,-2138,-0.65460215,-3171,-0.970880925
2023-11-08 16:34:21.892,976,230131,203319,-3261,-0.998436675,-3498,-1.07100015
2023-11-08 16:34:21.924,977,230133,203328,-4089,-1.251949575,-3738,-1.14448215
2023-11-08 16:34:21.924,978,230160,203321,-4137,-1.266645975,-3868,-1.1842849
2023-11-08 16:34:21.924,979,230169,203341,-3851,-1.179079925,-3868,-1.1842849
2023-11-08 16:34:21.956,980,230203,203350,-3327,-1.018644225,-3739,-1.144788325
2023-11-08 16:34:21.956,981,230205,203361,-1905,-0.583263375,-3496,-1.0703878
2023-11-08 16:34:21.956,982,230205,203365,-951,-0.291172425,-2798,-0.85667765
2023-11-08 16:34:21.956,983,230231,203365,-564,-0.1726827,-1917,-0.586937475
2023-11-08 16:34:21.956,984,230225,203375,-433,-0.132573775,-1517,-0.464467475
2023-11-08 16:34:21.956,985,230260,203376,37,0.011328475,-1349,-0.413030075
2023-11-08 16:34:21.987,986,230255,203378,674,0.20636195,-1224,-0.3747582
2023-11-08 16:34:21.987,987,230270,203370,1104,0.3380172,-1132,-0.3465901
2023-11-08 16:34:21.987,988,230253,203378,1875,0.574078125,-882,-0.27004635
2023-11-08 16:34:21.987,989,230238,203351,2132,0.6527651,-560,-0.171458
2023-11-08 16:34:21.987,990,230236,203358,2502,0.76604985,-332,-0.1016501
2023-11-08 16:34:21.987,991,230232,203343,2522,0.77217335,-219,-0.067052325
2023-11-08 16:34:22.020,992,230202,203355,2272,0.6956296,-235,-0.071951125
2023-11-08 16:34:22.020,993,230190,203325,2482,0.75992635,-389,-0.119102075
2023-11-08 16:34:22.020,994,230152,203322,2086,0.63868105,-663,-0.202994025
2023-11-08 16:34:22.020,995,230143,203321,1711,0.523865425,-1088,-0.3331184
2023-11-08 16:34:22.020,996,230137,203317,1527,0.467529225,-2261,-0.692261675
2023-11-08 16:34:22.020,997,230145,203320,1034,0.31658495,-2604,-0.7972797
2023-11-08 16:34:22.020,998,230138,203322,885,0.270964875,-2423,-0.741862025
2023-11-08 16:34:22.048,999,230167,203309,293,0.089709275,-2204,-0.6748097
2023-11-08 16:34:22.048,1000,230164,203330,-1284,-0.3931287,-2287,-0.700222225
2023-11-08 16:34:22.048,1001,230183,203339,-2927,-0.896174225,-2396,-0.7335953
2023-11-08 16:34:22.048,1002,230201,203355,-4652,-1.4243261,-2324,-0.7115507
2023-11-08 16:34:22.048,1003,230196,203335,-6175,-1.890630625,-1633,-0.499983775
2023-11-08 16:34:22.048,1004,230232,203355,-7123,-2.180884525,-785,-0.240347375
2023-11-08 16:34:22.048,1005,230234,203348,-7377,-2.258652975,-82,-0.02510635
2023-11-08 16:34:22.082,1006,230238,203357,-7359,-2.253141825,419,0.128287325
2023-11-08 16:34:22.082,1007,230249,203345,-7092,-2.1713931,766,0.23453005
2023-11-08 16:34:22.082,1008,230257,203363,-6710,-2.05443425,945,0.289335375
2023-11-08 16:34:22.082,1009,230257,203355,-5892,-1.8039831,977,0.299132975
2023-11-08 16:34:22.082,1010,230241,203350,-4301,-1.316858675,1036,0.3171973
2023-11-08 16:34:22.112,1011,230224,203349,-2557,-0.782889475,1380,0.4225215
2023-11-08 16:34:22.112,1012,230201,203336,-1434,-0.43905495,1637,0.501208475
2023-11-08 16:34:22.112,1013,230181,203321,-877,-0.268515475,1809,0.553870575
2023-11-08 16:34:22.112,1014,230166,203315,-414,-0.12675645,1902,0.58234485
2023-11-08 16:34:22.112,1015,230143,203304,-59,-0.018064325,1928,0.5903054
2023-11-08 16:34:22.112,1016,230140,203278,-160,-0.048988,1879,0.575302825
2023-11-08 16:34:22.112,1017,230099,203274,-144,-0.0440892,1723,0.527539525
2023-11-08 16:34:22.144,1018,230080,203275,207,0.063378225,1419,0.434462325
2023-11-08 16:34:22.144,1019,230101,203268,612,0.1873791,-409,-0.125225575
2023-11-08 16:34:22.144,1020,230080,203272,657,0.201156975,-2684,-0.8217737
2023-11-08 16:34:22.144,1021,230073,203268,1061,0.324851675,-4548,-1.3924839
2023-11-08 16:34:22.144,1022,230071,203263,1360,0.416398,-5885,-1.801839875
2023-11-08 16:34:22.144,1023,230051,203260,1559,0.477326825,-6680,-2.045249
2023-11-08 16:34:22.176,1024,230071,203269,1184,0.3625112,-6974,-2.13526445
2023-11-08 16:34:22.176,1025,230074,203266,787,0.240959725,-6830,-2.09117525
2023-11-08 16:34:22.176,1026,230081,203279,91,0.027861925,-6283,-1.923697525
2023-11-08 16:34:22.176,1027,230122,203292,-996,-0.3049503,-5442,-1.66620435
2023-11-08 16:34:22.176,1028,230160,203312,-2231,-0.683076425,-4773,-1.461373275
2023-11-08 16:34:22.176,1029,230184,203315,-3250,-0.99506875,-4534,-1.38819745
2023-11-08 16:34:22.176,1030,230262,203361,-4422,-1.35390585,-3686,-1.12856105
2023-11-08 16:34:22.176,1031,230303,203365,-5480,-1.677839,-2414,-0.73910645
2023-11-08 16:34:22.206,1032,230348,203395,-6350,-1.94421125,-1379,-0.422215325
2023-11-08 16:34:22.206,1033,230364,203412,-6880,-2.106484,-759,-0.232386825
2023-11-08 16:34:22.206,1034,230393,203433,-6899,-2.112301325,-517,-0.158292475
2023-11-08 16:34:22.206,1035,230411,203430,-5975,-1.829395625,-465,-0.142371375
2023-11-08 16:34:22.206,1036,230413,203431,-4493,-1.375644275,-465,-0.142371375
2023-11-08 16:34:22.206,1037,230410,203422,-3792,-1.1610156,-468,-0.1432899
2023-11-08 16:34:22.206,1038,230416,203418,-3235,-0.990476125,-519,-0.158904825
2023-11-08 16:34:22.235,1039,230379,203397,-2225,-0.681239375,-300,-0.0918525
2023-11-08 16:34:22.235,1040,230364,203396,-1696,-0.5192728,90,0.02755575
2023-11-08 16:34:22.235,1041,230344,203361,-1638,-0.50151465,392,0.1200206
2023-11-08 16:34:22.235,1042,230329,203377,-1320,-0.404151,594,0.18186795
2023-11-08 16:34:22.235,1043,230312,203347,-963,-0.294846525,683,0.209117525
2023-11-08 16:34:22.235,1044,230309,203367,-913,-0.279537775,665,0.203606375
2023-11-08 16:34:22.268,1045,230307,203346,-1142,-0.34965185,550,0.16839625
2023-11-08 16:34:22.268,1046,230313,203372,-1162,-0.35577535,343,0.105018025
2023-11-08 16:34:22.268,1047,230314,203336,-1433,-0.438748775,-494,-0.15125045
2023-11-08 16:34:22.268,1048,230307,203363,-1942,-0.59459185,-2478,-0.75870165
2023-11-08 16:34:22.268,1049,230345,203354,-2660,-0.8144255,-4083,-1.250112525
2023-11-08 16:34:22.268,1050,230334,203360,-3171,-0.970880925,-5263,-1.611399025
2023-11-08 16:34:22.269,1051,230324,203351,-3666,-1.12243755,-5913,-1.810412775
2023-11-08 16:34:22.269,1052,230340,203358,-4097,-1.254398975,-5915,-1.811025125
2023-11-08 16:34:22.299,1053,230352,203371,-4335,-1.327268625,-5395,-1.651814125
2023-11-08 16:34:22.299,1054,230343,203371,-4392,-1.3447206,-4781,-1.463822675
2023-11-08 16:34:22.299,1055,230384,203389,-4659,-1.426469325,-4411,-1.350537925
2023-11-08 16:34:22.299,1056,230389,203386,-4643,-1.421570525,-4461,-1.365846675
2023-11-08 16:34:22.299,1057,230410,203390,-4482,-1.37227635,-4346,-1.33063655
2023-11-08 16:34:22.299,1058,230411,203386,-4221,-1.292364675,-3548,-1.0863089
2023-11-08 16:34:22.331,1059,230388,203386,-4041,-1.237253175,-2775,-0.849635625
2023-11-08 16:34:22.331,1060,230417,203405,-4077,-1.248275475,-2285,-0.699609875
2023-11-08 16:34:22.331,1061,230425,203412,-4125,-1.262971875,-2042,-0.62520935
2023-11-08 16:34:22.331,1062,230467,203414,-4583,-1.403200025,-1973,-0.604083275
2023-11-08 16:34:22.331,1063,230475,203434,-5272,-1.6141546,-1996,-0.6111253
2023-11-08 16:34:22.362,1064,230481,203427,-6029,-1.845929075,-2103,-0.643886025
2023-11-08 16:34:22.362,1065,230472,203425,-6028,-1.8456229,-1773,-0.542848275
2023-11-08 16:34:22.362,1066,230473,203423,-5732,-1.7549951,-1574,-0.48191945
2023-11-08 16:34:22.362,1067,230466,203417,-5726,-1.75315805,-1523,-0.466304525
2023-11-08 16:34:22.362,1068,230472,203420,-5469,-1.674471075,-1608,-0.4923294
2023-11-08 16:34:22.362,1069,230467,203415,-4893,-1.498114275,-1795,-0.549584125
2023-11-08 16:34:22.391,1070,230441,203415,-4621,-1.414834675,-2045,-0.626127875
2023-11-08 16:34:22.391,1071,230438,203396,-4350,-1.33186125,-2334,-0.71461245
2023-11-08 16:34:22.391,1072,230422,203385,-4010,-1.22776175,-2646,-0.81013905
2023-11-08 16:34:22.391,1073,230432,203384,-3204,-0.9809847,-2969,-0.909033575
2023-11-08 16:34:22.391,1074,230381,203377,-2481,-0.759620175,-3292,-1.0079281
2023-11-08 16:34:22.391,1075,230354,203350,-2147,-0.657357725,-3596,-1.1010053
2023-11-08 16:34:22.427,1076,230322,203335,-1653,-0.506107275,-3858,-1.18122315
2023-11-08 16:34:22.427,1077,230300,203342,-1227,-0.375676725,-4061,-1.243376675
2023-11-08 16:34:22.427,1078,230291,203342,-934,-0.28596745,-4203,-1.286853525
2023-11-08 16:34:22.427,1079,230283,203320,-1040,-0.318422,-4301,-1.316858675
2023-11-08 16:34:22.427,1080,230286,203329,-1339,-0.409968325,-4386,-1.34288355
2023-11-08 16:34:22.455,1081,230293,203340,-1925,-0.589386875,-4486,-1.37350105
2023-11-08 16:34:22.455,1082,230315,203341,-3031,-0.928016425,-4603,-1.409323525
2023-11-08 16:34:22.455,1083,230329,203355,-3879,-1.187652825,-4723,-1.446064525
2023-11-08 16:34:22.455,1084,230355,203377,-4819,-1.475457325,-4843,-1.482805525
2023-11-08 16:34:22.455,1085,230373,203392,-6275,-1.921248125,-4957,-1.517709475
2023-11-08 16:34:22.455,1086,230417,203386,-7812,-2.3918391,-5052,-1.5467961
2023-11-08 16:34:22.487,1087,230419,203393,-8880,-2.718834,-5122,-1.56822835
2023-11-08 16:34:22.487,1088,230422,203394,-8997,-2.754656475,-5162,-1.58047535
2023-11-08 16:34:22.487,1089,230406,203397,-8182,-2.50512385,-5167,-1.582006225
2023-11-08 16:34:22.487,1090,230413,203388,-6793,-2.079846775,-5118,-1.56700365
2023-11-08 16:34:22.487,1091,230397,203387,-5660,-1.7329505,-4989,-1.527507075
2023-11-08 16:34:22.487,1092,230383,203375,-5323,-1.629769525,-4768,-1.4598424
2023-11-08 16:34:22.519,1093,230367,203355,-4610,-1.41146675,-4459,-1.365234325
2023-11-08 16:34:22.519,1094,230347,203370,-3665,-1.122131375,-3786,-1.15917855
2023-11-08 16:34:22.519,1095,230361,203357,-2925,-0.895561875,-3099,-0.948836325
2023-11-08 16:34:22.519,1096,230342,203352,-2163,-0.662256525,-2691,-0.823916925
2023-11-08 16:34:22.519,1097,230329,203349,-1872,-0.5731596,-2554,-0.78197095
2023-11-08 16:34:22.519,1098,230321,203338,-1561,-0.477939175,-2445,-0.748597875
2023-11-08 16:34:22.519,1099,230294,203332,-1533,-0.469366275,-2216,-0.6784838
2023-11-08 16:34:22.550,1100,230277,203341,-1633,-0.499983775,-2101,-0.643273675
2023-11-08 16:34:22.550,1101,230266,203351,-1668,-0.5106999,-2111,-0.646335425
2023-11-08 16:34:22.550,1102,230283,203328,-1851,-0.566729925,-2269,-0.694711075
2023-11-08 16:34:22.550,1103,230283,203346,-2208,-0.6760344,-3991,-1.221944425
2023-11-08 16:34:22.550,1104,230321,203368,-2925,-0.895561875,-5988,-1.8333759
2023-11-08 16:34:22.550,1105,230326,203364,-4095,-1.253786625,-7304,-2.2363022
2023-11-08 16:34:22.550,1106,230375,203397,-5393,-1.651201775,-7790,-2.38510325
2023-11-08 16:34:22.581,1107,230377,203401,-6636,-2.0317773,-7534,-2.30672245
2023-11-08 16:34:22.581,1108,230409,203419,-7867,-2.408678725,-6895,-2.111076625
2023-11-08 16:34:22.581,1109,230432,203434,-8735,-2.674438625,-6276,-1.9215543
2023-11-08 16:34:22.581,1110,230421,203424,-8976,-2.7482268,-5892,-1.8039831
2023-11-08 16:34:22.581,1111,230434,203430,-8849,-2.709342575,-5749,-1.760200075
2023-11-08 16:34:22.581,1112,230434,203417,-8214,-2.51492145,-5232,-1.6019076
2023-11-08 16:34:22.613,1113,230372,203397,-6771,-2.073110925,-4288,-1.3128784
2023-11-08 16:34:22.613,1114,230294,203371,-5346,-1.63681155,-3521,-1.078042175
2023-11-08 16:34:22.613,1115,230251,203373,-4224,-1.2932832,-3012,-0.9221991
2023-11-08 16:34:22.613,1116,230182,203325,-3645,-1.116007875,-2647,-0.810445225
2023-11-08 16:34:22.613,1117,230122,203288,-3355,-1.027217125,-2408,-0.7372694
2023-11-08 16:34:22.613,1118,230062,203269,-3473,-1.063345775,-2338,-0.71583715
2023-11-08 16:34:22.613,1119,230013,203245,-3727,-1.141114225,-2472,-0.7568646
2023-11-08 16:34:22.644,1120,229955,203224,-4630,-1.41759025,-2545,-0.779215375
2023-11-08 16:34:22.644,1121,229881,203180,-5730,-1.75438275,-2282,-0.69869135
2023-11-08 16:34:22.644,1122,229782,203157,-6969,-2.133733575,-2190,-0.67052325
2023-11-08 16:34:22.644,1123,229729,203143,-7802,-2.38877735,-2268,-0.6944049
2023-11-08 16:34:22.644,1124,229636,203114,-7986,-2.44511355,-2500,-0.7654375
2023-11-08 16:34:22.644,1125,229603,203104,-7332,-2.2448751,-4071,-1.246438425
2023-11-08 16:34:22.674,1126,229545,203082,-6530,-1.99932275,-5904,-1.8076572
2023-11-08 16:34:22.674,1127,229534,203089,-5955,-1.823272125,-7276,-2.2277293
2023-11-08 16:34:22.674,1128,229516,203073,-5576,-1.7072318,-8071,-2.471138425
2023-11-08 16:34:22.674,1129,229500,203070,-4678,-1.43228665,-8183,-2.505430025
2023-11-08 16:34:22.674,1130,229491,203066,-3916,-1.1989813,-7632,-2.3367276
2023-11-08 16:34:22.706,1131,229469,203062,-3281,-1.004560175,-6777,-2.074947975
2023-11-08 16:34:22.706,1132,229464,203073,-2535,-0.776153625,-6177,-1.891242975
2023-11-08 16:34:22.706,1133,229474,203071,-2136,-0.6539898,-5933,-1.816536275
2023-11-08 16:34:22.706,1134,229477,203081,-1927,-0.589999225,-5451,-1.668959925
2023-11-08 16:34:22.706,1135,229504,203110,-1971,-0.603470925,-4786,-1.46535355
2023-11-08 16:34:22.706,1136,229519,203105,-2275,-0.696548125,-4407,-1.349313225
2023-11-08 16:34:22.706,1137,229536,203140,-2807,-0.859433225,-4506,-1.37962455
2023-11-08 16:34:22.737,1138,229564,203152,-3196,-0.9785353,-4990,-1.52781325
2023-11-08 16:34:22.737,1139,229600,203163,-3592,-1.0997806,-5514,-1.68824895
2023-11-08 16:34:22.737,1140,229646,203183,-4089,-1.251949575,-5587,-1.710599725
2023-11-08 16:34:22.737,1141,229647,203213,-4572,-1.3998321,-5447,-1.667735225
2023-11-08 16:34:22.737,1142,229683,203221,-4688,-1.4353484,-5825,-1.783469375
2023-11-08 16:34:22.737,1143,229711,203235,-4962,-1.51924035,-6143,-1.880833025
2023-11-08 16:34:22.769,1144,229763,203259,-5363,-1.642016525,-6144,-1.8811392
2023-11-08 16:34:22.769,1145,229800,203280,-5922,-1.81316835,-5978,-1.83031415
2023-11-08 16:34:22.769,1146,229830,203305,-6534,-2.00054745,-5890,-1.80337075
2023-11-08 16:34:22.769,1147,229830,203327,-6837,-2.093318475,-6086,-1.86338105
2023-11-08 16:34:22.769,1148,229860,203331,-6636,-2.0317773,-6086,-1.86338105
2023-11-08 16:34:22.769,1149,229862,203343,-6183,-1.893080025,-5337,-1.634055975
2023-11-08 16:34:22.769,1150,229865,203324,-5835,-1.786531125,-4348,-1.3312489
2023-11-08 16:34:22.769,1151,229869,203353,-5339,-1.634668325,-3663,-1.121519025
2023-11-08 16:34:22.798,1152,229866,203337,-5025,-1.538529375,-3238,-0.99139465
2023-11-08 16:34:22.798,1153,229897,203364,-4948,-1.5149539,-3051,-0.934139925
2023-11-08 16:34:22.798,1154,229897,203360,-4619,-1.414222325,-3097,-0.948223975
2023-11-08 16:34:22.798,1155,229907,203375,-4574,-1.40044445,-3251,-0.995374925
2023-11-08 16:34:22.798,1156,229915,203377,-5089,-1.558124575,-3063,-0.937814025
2023-11-08 16:34:22.798,1157,229929,203389,-5396,-1.6521203,-2899,-0.887601325
2023-11-08 16:34:22.798,1158,229931,203393,-5566,-1.70417005,-2871,-0.879028425
2023-11-08 16:34:22.830,1159,229969,203417,-6261,-1.916961675,-2948,-0.9026039
2023-11-08 16:34:22.830,1160,229980,203418,-6782,-2.07647885,-3101,-0.949448675
2023-11-08 16:34:22.830,1161,229987,203442,-7201,-2.204766175,-3316,-1.0152763
2023-11-08 16:34:22.830,1162,229996,203433,-7563,-2.315601525,-3597,-1.101311475
2023-11-08 16:34:22.830,1163,230013,203458,-7968,-2.4396024,-3947,-1.208472725
2023-11-08 16:34:22.860,1164,230045,203465,-8324,-2.5486007,-4350,-1.33186125
2023-11-08 16:34:22.860,1165,230057,203484,-8781,-2.688522675,-4763,-1.458311525
2023-11-08 16:34:22.860,1166,230089,203518,-9024,-2.7629232,-5136,-1.5725148
2023-11-08 16:34:22.860,1167,230131,203541,-9272,-2.8388546,-5436,-1.6643673
2023-11-08 16:34:22.860,1168,230166,203525,-9366,-2.86763505,-5642,-1.72743935
2023-11-08 16:34:22.860,1169,230196,203554,-9033,-2.765678775,-5757,-1.762649475
2023-11-08 16:34:22.860,1170,230221,203556,-8610,-2.63616675,-5805,-1.777345875
2023-11-08 16:34:22.894,1171,230220,203567,-7479,-2.289882825,-5804,-1.7770397
2023-11-08 16:34:22.894,1172,230231,203569,-5766,-1.76540505,-5767,-1.765711225
2023-11-08 16:34:22.894,1173,230217,203553,-3864,-1.1830602,-5705,-1.746728375
2023-11-08 16:34:22.894,1174,230185,203558,-2187,-0.669604725,-5621,-1.721009675
2023-11-08 16:34:22.894,1175,230143,203538,-1150,-0.35210125,-5522,-1.69069835
2023-11-08 16:34:22.894,1176,230121,203517,-232,-0.0710326,-5436,-1.6643673
2023-11-08 16:34:22.924,1177,230115,203518,517,0.158292475,-5399,-1.653038825
2023-11-08 16:34:22.924,1178,230081,203510,1040,0.318422,-5429,-1.662224075
2023-11-08 16:34:22.924,1179,230083,203500,1085,0.332199875,-5540,-1.6962095
2023-11-08 16:34:22.924,1180,230060,203516,207,0.063378225,-5733,-1.755301275
2023-11-08 16:34:22.924,1181,230048,203520,-548,-0.1677839,-6002,-1.83766235
2023-11-08 16:34:22.956,1182,230066,203506,-1428,-0.4372179,-6337,-1.940230975
2023-11-08 16:34:22.956,1183,230075,203524,-2681,-0.820855175,-6782,-2.07647885
2023-11-08 16:34:22.956,1184,230064,203535,-4062,-1.24368285,-7142,-2.18670185
2023-11-08 16:34:22.956,1185,230084,203548,-5884,-1.8015337,-7487,-2.292332225
2023-11-08 16:34:22.956,1186,230087,203570,-7390,-2.26263325,-7843,-2.401330525
2023-11-08 16:34:22.956,1187,230126,203570,-7220,-2.2105835,-8145,-2.493795375
2023-11-08 16:34:22.956,1188,230136,203611,-5422,-1.66008085,-8350,-2.55656125
2023-11-08 16:34:22.988,1189,230173,203606,-609,-0.186460575,-8410,-2.57493175
2023-11-08 16:34:22.988,1190,230187,203617,-680,-0.208199,-8287,-2.537272225
2023-11-08 16:34:22.988,1191,230239,203636,-2185,-0.668992375,-6970,-2.13403975
2023-11-08 16:34:22.988,1192,230264,203661,-3126,-0.95710305,-4341,-1.329105675
2023-11-08 16:34:22.988,1193,230275,203667,-3639,-1.114170825,-2425,-0.742474375
2023-11-08 16:34:22.988,1194,230286,203682,-3784,-1.1585662,-1003,-0.307093525
2023-11-08 16:34:23.020,1195,230308,203673,-3568,-1.0924324,-19,-0.005817325
2023-11-08 16:34:23.020,1196,230314,203694,-3120,-0.955266,442,0.13532935
2023-11-08 16:34:23.020,1197,230295,203691,-2481,-0.759620175,338,0.10348715
2023-11-08 16:34:23.020,1198,230311,203661,-1694,-0.51866045,-133,-0.040721275
2023-11-08 16:34:23.020,1199,230295,203677,-1052,-0.3220961,-751,-0.229937425
2023-11-08 16:34:23.047,1200,230272,203658,-381,-0.116652675,-1323,-0.405069525
2023-11-08 16:34:23.047,1201,230248,203645,437,0.133798475,-1429,-0.437524075
2023-11-08 16:34:23.047,1202,230203,203638,1516,0.4641613,-1957,-0.599184475
2023-11-08 16:34:23.047,1203,230219,203636,1991,0.609594425,-3918,-1.19959365
2023-11-08 16:34:23.047,1204,230179,203632,2241,0.686138175,-5464,-1.6729402
2023-11-08 16:34:23.047,1205,230211,203634,2152,0.6588886,-5585,-1.709987375
2023-11-08 16:34:23.082,1206,230204,203644,1939,0.593673325,-4346,-1.33063655
2023-11-08 16:34:23.082,1207,230218,203651,1254,0.38394345,-3122,-0.95587835
2023-11-08 16:34:23.082,1208,230260,203669,533,0.163191275,-2688,-0.8229984
2023-11-08 16:34:23.082,1209,230277,203691,-710,-0.21738425,-2724,-0.8340207
2023-11-08 16:34:23.082,1210,230305,203716,-2404,-0.7360447,-2939,-0.899848325
2023-11-08 16:34:23.082,1211,230346,203721,-3712,-1.1365216,-3229,-0.988639075
2023-11-08 16:34:23.110,1212,230365,203725,-5061,-1.549551675,-3551,-1.087227425
2023-11-08 16:34:23.110,1213,230396,203750,-6498,-1.98952515,-3807,-1.165608225
2023-11-08 16:34:23.110,1214,230411,203767,-7447,-2.280085225,-3752,-1.1487686
2023-11-08 16:34:23.110,1215,230415,203776,-7784,-2.3832662,-3360,-1.028748
2023-11-08 16:34:23.110,1216,230448,203783,-8191,-2.507879425,-2952,-0.9038286
2023-11-08 16:34:23.110,1217,230461,203793,-8459,-2.589934325,-2575,-0.788400625
2023-11-08 16:34:23.110,1218,230489,203816,-9006,-2.75741205,-2260,-0.6919555
2023-11-08 16:34:23.142,1219,230509,203830,-9576,-2.9319318,-1338,-0.40966215
2023-11-08 16:34:23.142,1220,230534,203831,-9901,-3.031438675,-481,-0.147270175
2023-11-08 16:34:23.142,1221,230530,203823,-9890,-3.02807075,122,0.03735335
2023-11-08 16:34:23.142,1222,230534,203831,-8846,-2.70842405,717,0.219527475
2023-11-08 16:34:23.142,1223,230498,203811,-7869,-2.409291075,1225,0.375064375
2023-11-08 16:34:23.142,1224,230515,203811,-7150,-2.18915125,1349,0.413030075
2023-11-08 16:34:23.142,1225,230484,203816,-6599,-2.020448825,998,0.30556265
2023-11-08 16:34:23.172,1226,230501,203805,-6281,-1.923085175,884,0.2706587
2023-11-08 16:34:23.172,1227,230509,203808,-5971,-1.828170925,970,0.29698975
2023-11-08 16:34:23.172,1228,230489,203804,-5691,-1.742441925,532,0.1628851
2023-11-08 16:34:23.172,1229,230486,203801,-5992,-1.8346006,-1819,-0.556932325
2023-11-08 16:34:23.172,1230,230490,203809,-6599,-2.020448825,-3644,-1.1157017
2023-11-08 16:34:23.172,1231,230490,203805,-7209,-2.207215575,-5134,-1.57190245
2023-11-08 16:34:23.205,1232,230504,203825,-7957,-2.436234475,-6335,-1.939618625
2023-11-08 16:34:23.205,1233,230523,203831,-8852,-2.7102611,-7257,-2.221911975
2023-11-08 16:34:23.205,1234,230538,203840,-9620,-2.9454035,-7893,-2.416639275
2023-11-08 16:34:23.205,1235,230546,203845,-10542,-3.22769685,-8299,-2.540946325
2023-11-08 16:34:23.205,1236,230542,203843,-10952,-3.3532286,-8556,-2.6196333
2023-11-08 16:34:23.205,1237,230542,203849,-10961,-3.355984175,-8719,-2.669539825
2023-11-08 16:34:23.205,1238,230556,203846,-11005,-3.369455875,-8755,-2.680562125
2023-11-08 16:34:23.238,1239,230543,203851,-10901,-3.337613675,-8567,-2.623001225
2023-11-08 16:34:23.238,1240,230567,203851,-10539,-3.226778325,-8308,-2.5437019
2023-11-08 16:34:23.238,1241,230556,203842,-10503,-3.215756025,-8526,-2.61044805
2023-11-08 16:34:23.238,1242,230572,203863,-10049,-3.076752575,-8650,-2.64841375
2023-11-08 16:34:23.238,1243,230584,203856,-9849,-3.015517575,-8614,-2.63739145
2023-11-08 16:34:23.238,1244,230587,203882,-9879,-3.024702825,-8446,-2.58595405
2023-11-08 16:34:23.271,1245,230584,203879,-9540,-2.9209095,-8140,-2.4922645
2023-11-08 16:34:23.271,1246,230583,203870,-9287,-2.843447225,-7424,-2.2730432
2023-11-08 16:34:23.271,1247,230577,203865,-9205,-2.818340875,-7241,-2.217013175
2023-11-08 16:34:23.271,1248,230567,203855,-8662,-2.65208785,-7261,-2.223136675
2023-11-08 16:34:23.271,1249,230559,203850,-8172,-2.5020621,-7143,-2.187008025
2023-11-08 16:34:23.271,1250,230551,203849,-8213,-2.514615275,-7017,-2.148429975
2023-11-08 16:34:23.271,1251,230567,203845,-7744,-2.3710192,-7002,-2.14383735
2023-11-08 16:34:23.271,1252,230574,203846,-7236,-2.2154823,-7118,-2.17935365
2023-11-08 16:34:23.271,1253,230557,203849,-7735,-2.368263625,-8120,-2.486141
2023-11-08 16:34:23.298,1254,230575,203862,-7998,-2.44878765,-9187,-2.812829725
2023-11-08 16:34:23.298,1255,230575,203860,-7928,-2.4273554,-9814,-3.00480145
2023-11-08 16:34:23.298,1256,230573,203848,-8193,-2.508491775,-10074,-3.08440695
2023-11-08 16:34:23.298,1257,230582,203873,-8412,-2.5755441,-10065,-3.081651375
2023-11-08 16:34:23.298,1258,230584,203856,-8597,-2.632186475,-9949,-3.046135075
2023-11-08 16:34:23.298,1259,230580,203856,-8677,-2.656680475,-9955,-3.047972125
2023-11-08 16:34:23.298,1260,230583,203871,-8878,-2.71822165,-10205,-3.124515875
2023-11-08 16:34:23.329,1261,230598,203875,-8821,-2.700769675,-10373,-3.175953275
2023-11-08 16:34:23.329,1262,230607,203871,-8749,-2.678725075,-10459,-3.202284325
2023-11-08 16:34:23.329,1263,230602,203885,-8390,-2.56880825,-10458,-3.20197815
2023-11-08 16:34:23.329,1264,230627,203884,-8006,-2.45123705,-10374,-3.17625945
2023-11-08 16:34:23.329,1265,230643,203893,-7602,-2.32754235,-10215,-3.127577625
2023-11-08 16:34:23.361,1266,230630,203897,-7365,-2.254978875,-9990,-3.05868825
2023-11-08 16:34:23.361,1267,230598,203881,-6908,-2.1150569,-9728,-2.9784704
2023-11-08 16:34:23.361,1268,230599,203872,-6242,-1.91114435,-9451,-2.893659925
2023-11-08 16:34:23.361,1269,230606,203865,-5669,-1.735706075,-9173,-2.808543275
2023-11-08 16:34:23.395,1270,230587,203881,-5485,-1.679369875,-8924,-2.7323057
2023-11-08 16:34:23.395,1271,230598,203878,-5503,-1.684881025,-8713,-2.667702775
2023-11-08 16:34:23.395,1272,230590,203894,-5588,-1.7109059,-8527,-2.610754225
2023-11-08 16:34:23.395,1273,230610,203875,-5990,-1.83398825,-8362,-2.56023535
2023-11-08 16:34:23.395,1274,230623,203898,-6642,-2.03361435,-8228,-2.5192079
2023-11-08 16:34:23.395,1275,230618,203909,-7316,-2.2399763,-8132,-2.4898151
2023-11-08 16:34:23.426,1276,230634,203897,-8547,-2.616877725,-8089,-2.476649575
2023-11-08 16:34:23.426,1277,230660,203919,-9937,-3.042460975,-8102,-2.48062985
2023-11-08 16:34:23.426,1278,230675,203921,-11024,-3.3752732,-8155,-2.496857125
2023-11-08 16:34:23.426,1279,230683,203930,-11966,-3.66369005,-8231,-2.520126425
2023-11-08 16:34:23.426,1280,230697,203931,-12722,-3.89515835,-8317,-2.546457475
2023-11-08 16:34:23.426,1281,230742,203950,-13420,-4.1088685,-8381,-2.566052675
2023-11-08 16:34:23.455,1282,230753,203942,-13868,-4.2460349,-8410,-2.57493175
2023-11-08 16:34:23.455,1283,230766,203963,-13782,-4.21970385,-8404,-2.5730947
2023-11-08 16:34:23.455,1284,230771,203953,-13677,-4.187555475,-8353,-2.557479775
2023-11-08 16:34:23.455,1285,230792,203958,-13736,-4.2056198,-8236,-2.5216573
2023-11-08 16:34:23.455,1286,230794,203962,-12201,-3.735641175,-8043,-2.462565525
2023-11-08 16:34:23.455,1287,230798,203954,-10015,-3.066342625,-7786,-2.38387855
2023-11-08 16:34:23.455,1288,230762,203946,-9347,-2.861817725,-7488,-2.2926384
2023-11-08 16:34:23.486,1289,230757,203935,-8460,-2.5902405,-7178,-2.19772415
2023-11-08 16:34:23.486,1290,230737,203920,-7714,-2.36183395,-6888,-2.1089334
2023-11-08 16:34:23.486,1291,230723,203938,-7317,-2.240282475,-6650,-2.03606375
2023-11-08 16:34:23.486,1292,230679,203910,-6663,-2.040044025,-6490,-1.98707575
2023-11-08 16:34:23.486,1293,230647,203886,-5605,-1.716110875,-6438,-1.97115465
2023-11-08 16:34:23.486,1294,230608,203870,-4478,-1.37105165,-6515,-1.994730125
2023-11-08 16:34:23.486,1295,230587,203852,-3985,-1.220107375,-6736,-2.0623948
2023-11-08 16:34:23.519,1296,230519,203823,-4188,-1.2822609,-8824,-2.7016882
2023-11-08 16:34:23.519,1297,230489,203801,-4328,-1.3251254,-10439,-3.196160825
2023-11-08 16:34:23.519,1298,230433,203761,-4017,-1.229904975,-11667,-3.572143725
2023-11-08 16:34:23.519,1299,230352,203725,-3870,-1.18489725,-12542,-3.84004685
2023-11-08 16:34:23.519,1300,230249,203677,-3273,-1.002110775,-13014,-3.98456145
2023-11-08 16:34:23.519,1301,230167,203642,-2378,-0.72808415,-13186,-4.03722355
2023-11-08 16:34:23.519,1302,230089,203593,-2145,-0.656745375,-13131,-4.020383925
2023-11-08 16:34:23.519,1303,230036,203587,-2156,-0.6601133,-12676,-3.8810743
2023-11-08 16:34:23.519,1304,229973,203565,-1924,-0.5890807,-12151,-3.720332425
2023-11-08 16:34:23.550,1305,229916,203537,-1739,-0.532438325,-12364,-3.7855477
2023-11-08 16:34:23.550,1306,229909,203531,-1937,-0.593060975,-12199,-3.735028825
2023-11-08 16:34:23.550,1307,229889,203526,-2598,-0.79544265,-10693,-3.273929275
2023-11-08 16:34:23.550,1308,229889,203532,-3370,-1.03180975,-9184,-2.8119112
2023-11-08 16:34:23.550,1309,229882,203521,-4017,-1.229904975,-8043,-2.462565525
2023-11-08 16:34:23.550,1310,229905,203548,-4395,-1.345639125,-7140,-2.1860895
2023-11-08 16:34:23.550,1311,229922,203545,-4299,-1.316246325,-6365,-1.948803875
2023-11-08 16:34:23.580,1312,229927,203555,-4329,-1.325431575,-5757,-1.762649475
2023-11-08 16:34:23.580,1313,229935,203575,-4561,-1.396464175,-5366,-1.64293505
2023-11-08 16:34:23.580,1314,229971,203584,-5019,-1.536692325,-5091,-1.558736925
2023-11-08 16:34:23.580,1315,229997,203604,-5868,-1.7966349,-4862,-1.48862285
2023-11-08 16:34:23.580,1316,230038,203620,-6492,-1.9876881,-4759,-1.457086825
2023-11-08 16:34:23.613,1317,230067,203630,-6818,-2.08750115,-4757,-1.456474475
2023-11-08 16:34:23.613,1318,230078,203631,-7421,-2.272124675,-4781,-1.463822675
2023-11-08 16:34:23.613,1319,230102,203628,-7824,-2.3955132,-4489,-1.374419575
2023-11-08 16:34:23.642,1320,230124,203671,-7975,-2.441745625,-4101,-1.255623675
2023-11-08 16:34:23.642,1321,230144,203665,-7989,-2.446032075,-3732,-1.1426451
2023-11-08 16:34:23.642,1322,230178,203686,-7917,-2.423987475,-3382,-1.03548385
2023-11-08 16:34:23.642,1323,230189,203700,-8352,-2.5571736,-3075,-0.941488125
2023-11-08 16:34:23.642,1324,230222,203720,-9036,-2.7665973,-2841,-0.869843175
2023-11-08 16:34:23.642,1325,230222,203696,-9575,-2.931625625,-2704,-0.8278972
2023-11-08 16:34:23.676,1326,230245,203708,-9554,-2.92519595,-2667,-0.816568725
2023-11-08 16:34:23.676,1327,230266,203723,-9331,-2.856918925,-2696,-0.8254478
2023-11-08 16:34:23.676,1328,230269,203730,-8833,-2.704443775,-2760,-0.845043
2023-11-08 16:34:23.676,1329,230275,203701,-8097,-2.479098975,-2855,-0.874129625
2023-11-08 16:34:23.676,1330,230260,203720,-7337,-2.246405975,-2994,-0.91668795
2023-11-08 16:34:23.676,1331,230256,203729,-6593,-2.018611775,-3199,-0.979453825
2023-11-08 16:34:23.705,1332,230280,203745,-5783,-1.770610025,-3491,-1.068856925
2023-11-08 16:34:23.705,1333,230274,203731,-5287,-1.618747225,-3868,-1.1842849
2023-11-08 16:34:23.705,1334,230292,203736,-4987,-1.526894725,-4294,-1.31471545
2023-11-08 16:34:23.705,1335,230294,203723,-5024,-1.5382232,-4732,-1.4488201
2023-11-08 16:34:23.705,1336,230286,203744,-5400,-1.653345,-5158,-1.57925065
2023-11-08 16:34:23.705,1337,230302,203744,-5790,-1.77275325,-5561,-1.702639175
2023-11-08 16:34:23.705,1338,230297,203750,-6421,-1.965949675,-6066,-1.85725755
2023-11-08 16:34:23.705,1339,230307,203761,-7117,-2.179047475,-6434,-1.96992995
2023-11-08 16:34:23.737,1340,230324,203772,-7995,-2.447869125,-6654,-2.03728845
2023-11-08 16:34:23.737,1341,230347,203771,-9302,-2.84803985,-7014,-2.14751145
2023-11-08 16:34:23.737,1342,230370,203794,-10680,-3.269949,-7382,-2.26018385
2023-11-08 16:34:23.737,1343,230409,203800,-12400,-3.79657,-7742,-2.37040685
2023-11-08 16:34:23.737,1344,230432,203814,-14269,-4.368811075,-8074,-2.47205695
2023-11-08 16:34:23.737,1345,230443,203851,-15721,-4.813377175,-8356,-2.5583983
2023-11-08 16:34:23.737,1346,230476,203846,-17191,-5.263454425,-8552,-2.6184086
2023-11-08 16:34:23.767,1347,230467,203858,-18662,-5.71383785,-8635,-2.643821125
2023-11-08 16:34:23.767,1348,230498,203848,-19448,-5.9544914,-8599,-2.632798825
2023-11-08 16:34:23.767,1349,230516,203868,-19523,-5.977454525,-8462,-2.59085285
2023-11-08 16:34:23.767,1350,230508,203852,-19025,-5.824979375,-8251,-2.526249925
2023-11-08 16:34:23.767,1351,230510,203851,-18793,-5.753946775,-7701,-2.357853675
2023-11-08 16:34:23.798,1352,230516,203873,-18845,-5.769867875,-6793,-2.079846775
2023-11-08 16:34:23.798,1353,230497,203885,-19182,-5.87304885,-6399,-1.959213825
2023-11-08 16:34:23.798,1354,230525,203870,-19481,-5.964595175,-6339,-1.940843325
2023-11-08 16:34:23.798,1355,230527,203876,-20368,-6.2361724,-6429,-1.968399075
2023-11-08 16:34:23.798,1356,230518,203871,-21106,-6.46212955,-6370,-1.95033475
2023-11-08 16:34:23.798,1357,230502,203867,-21384,-6.5472462,-6208,-1.9007344
2023-11-08 16:34:23.798,1358,230494,203854,-21812,-6.6782891,-6197,-1.897366475
2023-11-08 16:34:23.830,1359,230497,203874,-22337,-6.839030975,-6371,-1.950640925
2023-11-08 16:34:23.830,1360,230491,203854,-22883,-7.006202525,-8728,-2.6722954
2023-11-08 16:34:23.830,1361,230492,203851,-23213,-7.107240275,-10959,-3.355371825
2023-11-08 16:34:23.830,1362,230512,203868,-23833,-7.297068775,-12985,-3.975682375
2023-11-08 16:34:23.830,1363,230518,203865,-24543,-7.514453025,-14846,-4.54547405
2023-11-08 16:34:23.830,1364,230531,203857,-24792,-7.5906906,-16549,-5.066890075
2023-11-08 16:34:23.860,1365,230493,203861,-24674,-7.55456195,-17923,-5.487574525
2023-11-08 16:34:23.860,1366,230487,203846,-24547,-7.515677725,-18762,-5.74445535
2023-11-08 16:34:23.860,1367,230486,203835,-23923,-7.324624525,-19045,-5.831102875
2023-11-08 16:34:23.860,1368,230456,203833,-23342,-7.14673685,-18986,-5.81303855
2023-11-08 16:34:23.891,1369,230432,203827,-22427,-6.866586725,-18838,-5.76772465
2023-11-08 16:34:23.891,1370,230457,203833,-21660,-6.6317505,-18723,-5.732514525
2023-11-08 16:34:23.891,1371,230449,203812,-21166,-6.48050005,-18707,-5.727615725
2023-11-08 16:34:23.891,1372,230444,203828,-20868,-6.3892599,-18803,-5.757008525
2023-11-08 16:34:23.891,1373,230443,203813,-20747,-6.352212725,-18861,-5.774766675
2023-11-08 16:34:23.891,1374,230447,203836,-20384,-6.2410712,-19321,-5.915607175
2023-11-08 16:34:23.891,1375,230483,203835,-19912,-6.0965566,-19701,-6.031953675
2023-11-08 16:34:23.923,1376,230497,203849,-20027,-6.131766725,-20021,-6.129929675
2023-11-08 16:34:23.923,1377,230506,203850,-20512,-6.2802616,-20316,-6.2202513
2023-11-08 16:34:23.923,1378,230524,203864,-20568,-6.2974074,-20796,-6.3672153
2023-11-08 16:34:23.923,1379,230535,203863,-20558,-6.29434565,-21535,-6.593478625
2023-11-08 16:34:23.923,1380,230530,203858,-20252,-6.2006561,-22196,-6.7958603
2023-11-08 16:34:23.923,1381,230545,203859,-19685,-6.027054875,-22772,-6.9722171
2023-11-08 16:34:23.956,1382,230551,203865,-19021,-5.823754675,-23150,-7.08795125
2023-11-08 16:34:23.956,1383,230543,203862,-18547,-5.678627725,-23277,-7.126835475
2023-11-08 16:34:23.956,1384,230559,203869,-18010,-5.51421175,-23258,-7.12101815
2023-11-08 16:34:23.956,1385,230540,203850,-17474,-5.35010195,-23555,-7.211952125
2023-11-08 16:34:23.956,1386,230562,203860,-16806,-5.14557705,-23721,-7.262777175
2023-11-08 16:34:23.956,1387,230524,203857,-16454,-5.03780345,-23757,-7.273799475
2023-11-08 16:34:23.956,1388,230572,203855,-16066,-4.91900755,-23685,-7.251754875
2023-11-08 16:34:23.956,1389,230541,203874,-15667,-4.796843725,-23534,-7.20552245
2023-11-08 16:34:23.985,1390,230562,203858,-15358,-4.70223565,-23160,-7.091013
2023-11-08 16:34:23.985,1391,230584,203865,-15117,-4.628447475,-22341,-6.840255675
2023-11-08 16:34:23.985,1392,230589,203891,-15231,-4.663351425,-21753,-6.660224775
2023-11-08 16:34:23.985,1393,230616,203888,-15574,-4.76836945,-21442,-6.56500435
2023-11-08 16:34:23.985,1394,230630,203898,-15944,-4.8816542,-21400,-6.552145
2023-11-08 16:34:23.985,1395,230613,203899,-16230,-4.96922025,-21421,-6.558574675
2023-11-08 16:34:23.985,1396,230652,203909,-16999,-5.204668825,-21091,-6.457536925
2023-11-08 16:34:24.016,1397,230689,203932,-17537,-5.369390975,-20823,-6.375482025
2023-11-08 16:34:24.016,1398,230705,203919,-17632,-5.3984776,-20610,-6.31026675
2023-11-08 16:34:24.016,1399,230695,203916,-17398,-5.32683265,-20426,-6.25393055
2023-11-08 16:34:24.016,1400,230690,203929,-17142,-5.24845185,-20246,-6.19881905
2023-11-08 16:34:24.016,1401,230706,203924,-16504,-5.0531122,-20046,-6.13758405
2023-11-08 16:34:24.047,1402,230690,203925,-15432,-4.7248926,-19814,-6.06655145
2023-11-08 16:34:24.047,1403,230711,203915,-14549,-4.454540075,-19550,-5.98572125
2023-11-08 16:34:24.047,1404,230713,203934,-14423,-4.415962025,-19247,-5.892950225
2023-11-08 16:34:24.047,1405,230699,203924,-14102,-4.31767985,-18501,-5.664543675
2023-11-08 16:34:24.047,1406,230714,203925,-13608,-4.1664294,-17823,-5.456957025
2023-11-08 16:34:24.047,1407,230713,203921,-12824,-3.9263882,-17329,-5.305706575
2023-11-08 16:34:24.047,1408,230705,203925,-12071,-3.695838425,-16961,-5.193034175
2023-11-08 16:34:24.079,1409,230689,203905,-11361,-3.478454175,-16752,-5.1290436
2023-11-08 16:34:24.079,1410,230683,203908,-10742,-3.28893185,-16730,-5.12230775
2023-11-08 16:34:24.079,1411,230686,203888,-10144,-3.1058392,-16422,-5.02800585
2023-11-08 16:34:24.079,1412,230696,203908,-9319,-2.853244825,-16163,-4.948706525
2023-11-08 16:34:24.079,1413,230698,203912,-8606,-2.63494205,-16014,-4.90308645
2023-11-08 16:34:24.079,1414,230710,203907,-8266,-2.53084255,-15981,-4.892982675
2023-11-08 16:34:24.110,1415,230707,203897,-8343,-2.554418025,-16035,-4.909516125
2023-11-08 16:34:24.111,1416,230711,203896,-8485,-2.597894875,-16139,-4.941358325
2023-11-08 16:34:24.111,1417,230706,203897,-9013,-2.759555275,-16266,-4.98024255
2023-11-08 16:34:24.111,1418,230711,203910,-9827,-3.008781725,-16393,-5.019126775
2023-11-08 16:34:24.111,1419,230712,203924,-10684,-3.2711737,-16489,-5.048519575
2023-11-08 16:34:24.141,1420,230747,203923,-11951,-3.659097425,-16529,-5.060766575
2023-11-08 16:34:24.141,1421,230749,203926,-13159,-4.028956825,-16503,-5.052806025
2023-11-08 16:34:24.141,1422,230759,203931,-14284,-4.3734037,-16403,-5.022188525
2023-11-08 16:34:24.141,1423,230768,203942,-14616,-4.4750538,-16220,-4.9661585
2023-11-08 16:34:24.141,1424,230769,203941,-14647,-4.484545225,-15388,-4.7114209
2023-11-08 16:34:24.141,1425,230779,203941,-13843,-4.238380525,-14454,-4.42545345
2023-11-08 16:34:24.141,1426,230771,203941,-13042,-3.99313435,-13687,-4.190617225
2023-11-08 16:34:24.173,1427,230791,203933,-12094,-3.70288045,-12995,-3.978744125
2023-11-08 16:34:24.173,1428,230763,203927,-11238,-3.44079465,-12301,-3.766258675
2023-11-08 16:34:24.173,1429,230777,203937,-10443,-3.197385525,-11552,-3.5369336
2023-11-08 16:34:24.173,1430,230756,203912,-9758,-2.98765565,-10772,-3.2981171
2023-11-08 16:34:24.173,1431,230791,203914,-9316,-2.8523263,-10112,-3.0960416
2023-11-08 16:34:24.173,1432,230783,203916,-8792,-2.6918906,-9710,-2.97295925
2023-11-08 16:34:24.205,1433,230778,203918,-8968,-2.7457774,-9555,-2.925502125
2023-11-08 16:34:24.205,1434,230772,203908,-8869,-2.715466075,-9599,-2.938973825
2023-11-08 16:34:24.205,1435,230761,203928,-8814,-2.69862645,-9745,-2.983675375
2023-11-08 16:34:24.205,1436,230780,203916,-9041,-2.768128175,-9696,-2.9686728
2023-11-08 16:34:24.205,1437,230750,203914,-9161,-2.804869175,-9564,-2.9282577
2023-11-08 16:34:24.205,1438,230773,203903,-9390,-2.87498325,-9597,-2.938361475
2023-11-08 16:34:24.205,1439,230759,203908,-9631,-2.948771425,-10436,-3.1952423
2023-11-08 16:34:24.205,1440,230781,203895,-9441,-2.890598175,-12210,-3.73839675
2023-11-08 16:34:24.235,1441,230773,203902,-9274,-2.83946695,-13229,-4.050389075
2023-11-08 16:34:24.235,1442,230791,203897,-9204,-2.8180347,-13545,-4.147140375
2023-11-08 16:34:24.235,1443,230801,203906,-9017,-2.760779975,-13350,-4.08743625
2023-11-08 16:34:24.235,1444,230808,203917,-8903,-2.725876025,-12882,-3.94414635
2023-11-08 16:34:24.235,1445,230791,203913,-8993,-2.753431775,-12432,-3.8063676
2023-11-08 16:34:24.235,1446,230815,203935,-8910,-2.72801925,-12344,-3.7794242
2023-11-08 16:34:24.235,1447,230833,203917,-9032,-2.7653726,-12407,-3.798713225
2023-11-08 16:34:24.267,1448,230827,203931,-9024,-2.7629232,-11740,-3.5944945
2023-11-08 16:34:24.267,1449,230838,203935,-9174,-2.80884945,-10801,-3.306996175
2023-11-08 16:34:24.267,1450,230855,203928,-9490,-2.90560075,-10199,-3.122678825
2023-11-08 16:34:24.267,1451,230862,203942,-9488,-2.9049884,-9893,-3.028989275
2023-11-08 16:34:24.267,1452,230852,203948,-9511,-2.912030425,-9739,-2.981838325
2023-11-08 16:34:24.298,1453,230843,203926,-9443,-2.891210525,-9723,-2.976939525
2023-11-08 16:34:24.298,1454,230843,203935,-9167,-2.806706225,-9819,-3.006332325
2023-11-08 16:34:24.298,1455,230842,203929,-8669,-2.654231075,-9691,-2.967141925
2023-11-08 16:34:24.328,1456,230847,203936,-8476,-2.5951393,-9423,-2.885087025
2023-11-08 16:34:24.328,1457,230836,203904,-8584,-2.6282062,-9260,-2.8351805
2023-11-08 16:34:24.328,1458,230815,203909,-8195,-2.509104125,-9179,-2.810380325
2023-11-08 16:34:24.328,1459,230815,203904,-8076,-2.4726693,-9155,-2.803032125
2023-11-08 16:34:24.328,1460,230822,203907,-8095,-2.478486625,-9159,-2.804256825
2023-11-08 16:34:24.328,1461,230820,203912,-8033,-2.459503775,-9169,-2.807318575
2023-11-08 16:34:24.360,1462,230820,203906,-7780,-2.3820415,-9177,-2.809767975
2023-11-08 16:34:24.360,1463,230852,203913,-8245,-2.524412875,-9186,-2.81252355
2023-11-08 16:34:24.360,1464,230859,203937,-8397,-2.570951475,-9196,-2.8155853
2023-11-08 16:34:24.360,1465,230884,203947,-8702,-2.66433485,-9201,-2.817116175
2023-11-08 16:34:24.360,1466,230919,203957,-9484,-2.9037637,-9195,-2.815279125
2023-11-08 16:34:24.360,1467,230917,203962,-10573,-3.237188275,-9182,-2.81129885
2023-11-08 16:34:24.392,1468,230933,203962,-11392,-3.4879456,-9170,-2.80762475
2023-11-08 16:34:24.392,1469,230943,203948,-11355,-3.476617125,-9167,-2.806706225
2023-11-08 16:34:24.392,1470,230942,203966,-11029,-3.376804075,-9175,-2.809155625
2023-11-08 16:34:24.392,1471,230939,203957,-10499,-3.214531325,-9190,-2.81374825
2023-11-08 16:34:24.392,1472,230949,203950,-10168,-3.1131874,-9198,-2.81619765
2023-11-08 16:34:24.392,1473,230920,203957,-9831,-3.010006425,-9190,-2.81374825
2023-11-08 16:34:24.392,1474,230937,203949,-9562,-2.92764535,-9165,-2.806093875
2023-11-08 16:34:24.423,1475,230921,203953,-9424,-2.8853932,-9117,-2.791397475
2023-11-08 16:34:24.423,1476,230917,203935,-9366,-2.86763505,-9045,-2.769352875
2023-11-08 16:34:24.423,1477,230896,203927,-9201,-2.817116175,-8953,-2.741184775
2023-11-08 16:34:24.423,1478,230841,203917,-9098,-2.78558015,-8842,-2.70719935
2023-11-08 16:34:24.423,1479,230794,203860,-8848,-2.7090364,-8715,-2.668315125
2023-11-08 16:34:24.423,1480,230751,203857,-8975,-2.747920625,-8588,-2.6294309
2023-11-08 16:34:24.423,1481,230683,203812,-8895,-2.723426625,-8471,-2.593608425
2023-11-08 16:34:24.453,1482,230617,203785,-8668,-2.6539249,-8382,-2.56635885
2023-11-08 16:34:24.453,1483,230548,203746,-8645,-2.646882875,-8354,-2.55778595
2023-11-08 16:34:24.453,1484,230484,203722,-8224,-2.5179832,-8416,-2.5767688
2023-11-08 16:34:24.453,1485,230410,203688,-7996,-2.4481753,-8573,-2.624838275
2023-11-08 16:34:24.453,1486,230329,203648,-7919,-2.424599825,-8807,-2.696483225
2023-11-08 16:34:24.453,1487,230287,203642,-7822,-2.39490085,-9084,-2.7812937
2023-11-08 16:34:24.453,1488,230237,203611,-7899,-2.418476325,-9366,-2.86763505
2023-11-08 16:34:24.453,1489,230213,203601,-8087,-2.476037225,-9626,-2.94724055
2023-11-08 16:34:24.453,1490,230175,203588,-8566,-2.62269505,-9848,-3.0152114
2023-11-08 16:34:24.486,1491,230184,203602,-8859,-2.712404325,-10017,-3.066954975
2023-11-08 16:34:24.486,1492,230165,203582,-8942,-2.73781685,-10135,-3.103083625
2023-11-08 16:34:24.486,1493,230145,203591,-9064,-2.7751702,-10212,-3.1266591
2023-11-08 16:34:24.486,1494,230135,203573,-9221,-2.823239675,-10244,-3.1364567
2023-11-08 16:34:24.486,1495,230113,203583,-9378,-2.87130915,-10210,-3.12604675
2023-11-08 16:34:24.486,1496,230108,203553,-9546,-2.92274655,-10099,-3.092061325
2023-11-08 16:34:24.486,1497,230128,203582,-9673,-2.961630775,-9926,-3.03909305
2023-11-08 16:34:24.516,1498,230131,203586,-9935,-3.041848625,-9717,-2.975102475
2023-11-08 16:34:24.516,1499,230139,203577,-9918,-3.03664365,-9498,-2.90805015
2023-11-08 16:34:24.516,1500,230171,203594,-9892,-3.0286831,-9291,-2.844671925
2023-11-08 16:34:24.516,1501,230158,203623,-9774,-2.99255445,-9113,-2.790172775
2023-11-08 16:34:24.516,1502,230183,203598,-9581,-2.933462675,-8968,-2.7457774
2023-11-08 16:34:24.516,1503,230214,203614,-9568,-2.9294824,-8848,-2.7090364
2023-11-08 16:34:24.547,1504,230244,203627,-9649,-2.954282575,-8735,-2.674438625
2023-11-08 16:34:24.547,1505,230274,203639,-9859,-3.018579325,-8615,-2.637697625
2023-11-08 16:34:24.547,1506,230283,203656,-9784,-2.9956162,-8494,-2.60065045
2023-11-08 16:34:24.579,1507,230319,203662,-9672,-2.9613246,-8395,-2.570339125
2023-11-08 16:34:24.579,1508,230330,203659,-9793,-2.998371775,-8334,-2.55166245
2023-11-08 16:34:24.579,1509,230351,203683,-9689,-2.966529575,-8316,-2.5461513
2023-11-08 16:34:24.579,1510,230367,203682,-9451,-2.893659925,-8340,-2.5534995
2023-11-08 16:34:24.579,1511,230368,203686,-9177,-2.809767975,-8393,-2.569726775
2023-11-08 16:34:24.579,1512,230401,203668,-9246,-2.83089405,-8471,-2.593608425
2023-11-08 16:34:24.610,1513,230391,203681,-9094,-2.78435545,-8569,-2.623613575
2023-11-08 16:34:24.610,1514,230387,203676,-8479,-2.596057825,-8690,-2.66066075
2023-11-08 16:34:24.610,1515,230385,203693,-7938,-2.43041715,-8841,-2.706893175
2023-11-08 16:34:24.610,1516,230387,203684,-7956,-2.4359283,-9019,-2.761392325
2023-11-08 16:34:24.610,1517,230401,203689,-8062,-2.46838285,-9208,-2.8192594
2023-11-08 16:34:24.610,1518,230392,203675,-7988,-2.4457259,-9378,-2.87130915
2023-11-08 16:34:24.641,1519,230386,203689,-7885,-2.414189875,-9508,-2.9111119
2023-11-08 16:34:24.641,1520,230370,203669,-7856,-2.4053108,-9595,-2.937749125
2023-11-08 16:34:24.641,1521,230343,203665,-7507,-2.298455725,-9652,-2.9552011
2023-11-08 16:34:24.641,1522,230344,203650,-7226,-2.21242055,-9693,-2.967754275
2023-11-08 16:34:24.641,1523,230346,203670,-7142,-2.18670185,-9726,-2.97785805
2023-11-08 16:34:24.641,1524,230347,203667,-6896,-2.1113828,-9753,-2.986124775
2023-11-08 16:34:24.641,1525,230377,203674,-7016,-2.1481238,-9777,-2.993472975
2023-11-08 16:34:24.641,1526,230412,203703,-7414,-2.26998145,-9789,-2.997147075
2023-11-08 16:34:24.672,1527,230458,203724,-8339,-2.553193325,-9776,-2.9931668
2023-11-08 16:34:24.672,1528,230478,203734,-9353,-2.863654775,-9735,-2.980613625
2023-11-08 16:34:24.672,1529,230511,203748,-10428,-3.1927929,-9678,-2.96316165
2023-11-08 16:34:24.672,1530,230516,203750,-11140,-3.4107895,-9614,-2.94356645
2023-11-08 16:34:24.672,1531,230523,203755,-10826,-3.31465055,-9536,-2.9196848
2023-11-08 16:34:24.672,1532,230505,203755,-9770,-2.99132975,-9432,-2.8878426
2023-11-08 16:34:24.672,1533,230512,203742,-8901,-2.725263675,-9305,-2.848958375
2023-11-08 16:34:24.708,1534,230529,203747,-8435,-2.582586125,-9162,-2.80517535
2023-11-08 16:34:24.708,1535,230505,203721,-7755,-2.374387125,-9003,-2.756493525
2023-11-08 16:34:24.708,1536,230483,203720,-7364,-2.2546727,-8826,-2.70230055
2023-11-08 16:34:24.709,1537,230462,203713,-6986,-2.13893855,-8640,-2.645352
2023-11-08 16:34:24.709,1538,230467,203711,-6612,-2.0244291,-8458,-2.58962815
2023-11-08 16:34:24.739,1539,230469,203722,-6158,-1.88542565,-8286,-2.53696605
2023-11-08 16:34:24.739,1540,230473,203715,-5725,-1.752851875,-8115,-2.484610125
2023-11-08 16:34:24.739,1541,230488,203720,-5857,-1.793266975,-7941,-2.431335675
2023-11-08 16:34:24.739,1542,230487,203721,-6236,-1.9093073,-7774,-2.38020445
2023-11-08 16:34:24.739,1543,230516,203740,-7041,-2.155778175,-7643,-2.340095525
2023-11-08 16:34:24.739,1544,230500,203734,-8076,-2.4726693,-7574,-2.31896945
2023-11-08 16:34:24.739,1545,230524,203756,-8981,-2.749757675,-7590,-2.32386825
2023-11-08 16:34:24.766,1546,230562,203756,-9836,-3.0115373,-7709,-2.360303075
2023-11-08 16:34:24.766,1547,230540,203756,-10662,-3.26443785,-7925,-2.426436875
2023-11-08 16:34:24.766,1548,230561,203753,-11077,-3.391500475,-8195,-2.509104125
2023-11-08 16:34:24.766,1549,230512,203738,-10687,-3.272092225,-8464,-2.5914652
2023-11-08 16:34:24.766,1550,230487,203722,-9731,-2.979388925,-8696,-2.6624978
2023-11-08 16:34:24.766,1551,230482,203732,-8603,-2.634023525,-8878,-2.71822165
2023-11-08 16:34:24.798,1552,230460,203711,-7603,-2.327848525,-9007,-2.757718225
2023-11-08 16:34:24.798,1553,230482,203705,-6798,-2.08137765,-9078,-2.77945665
2023-11-08 16:34:24.798,1554,230482,203712,-6488,-1.9864634,-9086,-2.78190605
