Time, Sample Count, IR Count, Red Count, Raw ECG, Raw ECG (mV), Filtered ECG, Filtered ECG (mV)
2023-10-21 21:30:51.750,11728,233049,209594,-7427,-2.273961725,-6983,-2.138020025
2023-10-21 21:30:51.782,11729,233094,209607,-7419,-2.271512325,-7225,-2.212114375
2023-10-21 21:30:51.783,11730,233090,209595,-7526,-2.30427305,-7431,-2.275186425
2023-10-21 21:30:51.783,11731,233113,209598,-7379,-2.259265325,-7507,-2.298455725
2023-10-21 21:30:51.783,11732,233142,209611,-7651,-2.342544925,-7467,-2.286208725
2023-10-21 21:30:51.798,11733,233167,209622,-7652,-2.3428511,-7436,-2.2767173
2023-10-21 21:30:51.798,11734,233210,209645,-7768,-2.3783674,-7416,-2.2705938
2023-10-21 21:30:51.798,11735,233239,209655,-7747,-2.371937725,-7387,-2.261714725
2023-10-21 21:30:51.798,11736,233271,209676,-7519,-2.302129825,-7420,-2.2718185
2023-10-21 21:30:51.798,11737,233327,209679,-7868,-2.4089849,-7523,-2.303354525
2023-10-21 21:30:51.826,11738,233365,209666,-7964,-2.4383777,-7620,-2.3330535
2023-10-21 21:30:51.826,11739,233377,209649,-7842,-2.40102435,-7693,-2.355404275
2023-10-21 21:30:51.826,11740,233373,209628,-7665,-2.346831375,-7653,-2.343157275
2023-10-21 21:30:51.826,11741,233355,209600,-7855,-2.405004625,-7601,-2.327236175
2023-10-21 21:30:51.857,11742,233352,209571,-8178,-2.50389915,-7519,-2.302129825
2023-10-21 21:30:51.857,11743,233341,209558,-7808,-2.3906144,-7521,-2.302742175
2023-10-21 21:30:51.857,11744,233336,209540,-7686,-2.35326105,-7579,-2.320500325
2023-10-21 21:30:51.857,11745,233329,209520,-7642,-2.33978935,-7662,-2.34591285
2023-10-21 21:30:51.892,11746,233323,209496,-7812,-2.3918391,-7734,-2.36795745
2023-10-21 21:30:51.892,11747,233280,209484,-7758,-2.37530565,-7708,-2.3599969
2023-10-21 21:30:51.892,11748,233279,209463,-7772,-2.3795921,-7587,-2.322949725
2023-10-21 21:30:51.892,11749,233245,209446,-7805,-2.389695875,-7419,-2.271512325
2023-10-21 21:30:51.892,11750,233232,209452,-7805,-2.389695875,-7421,-2.272124675
2023-10-21 21:30:51.892,11751,233188,209439,-7963,-2.438071525,-7531,-2.305803925
2023-10-21 21:30:51.923,11752,233172,209433,-7954,-2.43531595,-7718,-2.36305865
2023-10-21 21:30:51.923,11753,233169,209425,-7642,-2.33978935,-7859,-2.406229325
2023-10-21 21:30:51.923,11754,233153,209417,-7688,-2.3538734,-7850,-2.40347375
2023-10-21 21:30:51.923,11755,233147,209416,-8107,-2.482160725,-7743,-2.370713025
2023-10-21 21:30:51.923,11756,233099,209390,-8233,-2.520738775,-7622,-2.33366585
2023-10-21 21:30:51.923,11757,233083,209390,-8217,-2.515839975,-7601,-2.327236175
2023-10-21 21:30:51.923,11758,233027,209378,-8020,-2.4555235,-7755,-2.374387125
2023-10-21 21:30:51.954,11759,233023,209372,-7904,-2.4200072,-8011,-2.452767925
2023-10-21 21:30:51.954,11760,232985,209368,-8038,-2.46103465,-8066,-2.46960755
2023-10-21 21:30:51.954,11761,232984,209355,-8168,-2.5008374,-7907,-2.420925725
2023-10-21 21:30:51.954,11762,232965,209322,-8240,-2.522882,-7795,-2.386634125
2023-10-21 21:30:51.954,11763,232949,209337,-8381,-2.566052675,-7696,-2.3563228
2023-10-21 21:30:51.954,11764,232938,209320,-8365,-2.561153875,-7719,-2.363364825
2023-10-21 21:30:51.954,11765,232933,209310,-8425,-2.579524375,-7801,-2.388471175
2023-10-21 21:30:51.954,11766,232960,209296,-8339,-2.553193325,-7878,-2.41204665
2023-10-21 21:30:51.954,11767,233003,209296,-8437,-2.583198475,-7898,-2.41817015
2023-10-21 21:30:51.986,11768,233035,209274,-8620,-2.6392285,-7881,-2.412965175
2023-10-21 21:30:51.986,11769,233039,209238,-8470,-2.59330225,-7845,-2.401942875
2023-10-21 21:30:51.986,11770,233067,209220,-8475,-2.594833125,-7804,-2.3893897
2023-10-21 21:30:51.986,11771,233074,209189,-8479,-2.596057825,-7789,-2.384797075
2023-10-21 21:30:51.986,11772,233074,209147,-8458,-2.58962815,-7790,-2.38510325
2023-10-21 21:30:51.986,11773,233099,209108,-8437,-2.583198475,-7861,-2.406841675
2023-10-21 21:30:51.986,11774,233098,209080,-8208,-2.5130844,-7917,-2.423987475
2023-10-21 21:30:51.986,11775,233126,209045,-8510,-2.60554925,-7936,-2.4298048
2023-10-21 21:30:52.014,11776,233138,209027,-8572,-2.6245321,-7952,-2.4347036
2023-10-21 21:30:52.014,11777,233147,209008,-8296,-2.5400278,-7958,-2.43654065
2023-10-21 21:30:52.014,11778,233184,208996,-8317,-2.546457475,-7974,-2.44143945
2023-10-21 21:30:52.014,11779,233196,208993,-8371,-2.562990925,-8039,-2.461340825
2023-10-21 21:30:52.014,11780,233208,208998,-8440,-2.584117,-8092,-2.4775681
2023-10-21 21:30:52.014,11781,233223,208979,-8035,-2.460116125,-8105,-2.481548375
2023-10-21 21:30:52.014,11782,233247,208986,-7918,-2.42429365,-8155,-2.496857125
2023-10-21 21:30:52.049,11783,233264,208998,-8064,-2.4689952,-8192,-2.5081856
2023-10-21 21:30:52.049,11784,233299,208984,-7989,-2.446032075,-8221,-2.517064675
2023-10-21 21:30:52.049,11785,233318,208988,-7929,-2.427661575,-8303,-2.542171025
2023-10-21 21:30:52.049,11786,233315,208994,-7889,-2.415414575,-8368,-2.5620724
2023-10-21 21:30:52.049,11787,233327,208973,-7636,-2.3379523,-8356,-2.5583983
2023-10-21 21:30:52.049,11788,233314,208985,-8004,-2.4506247,-8388,-2.5681959
2023-10-21 21:30:52.049,11789,233325,208996,-8709,-2.666478075,-8417,-2.577074975
2023-10-21 21:30:52.049,11790,233322,208975,-9220,-2.8229335,-8438,-2.58350465
2023-10-21 21:30:52.077,11791,233356,208978,-9473,-2.900395775,-8452,-2.5877911
2023-10-21 21:30:52.077,11792,233360,208976,-9347,-2.861817725,-8466,-2.59207755
2023-10-21 21:30:52.077,11793,233381,208977,-9051,-2.771189925,-8479,-2.596057825
2023-10-21 21:30:52.077,11794,233421,208967,-8407,-2.574013225,-8482,-2.59697635
2023-10-21 21:30:52.077,11795,233443,208990,-7550,-2.31162125,-8471,-2.593608425
2023-10-21 21:30:52.077,11796,233447,208981,-7218,-2.20997115,-8454,-2.58840345
2023-10-21 21:30:52.077,11797,233484,208978,-7674,-2.34958695,-8440,-2.584117
2023-10-21 21:30:52.108,11798,233504,208972,-7911,-2.422150425,-8423,-2.578912025
2023-10-21 21:30:52.108,11799,233550,208996,-7751,-2.373162425,-8395,-2.570339125
2023-10-21 21:30:52.108,11800,233569,208994,-7988,-2.4457259,-8358,-2.55901065
2023-10-21 21:30:52.108,11801,233578,208986,-8282,-2.53574135,-8316,-2.5461513
2023-10-21 21:30:52.108,11802,233605,208989,-8199,-2.510328825,-8217,-2.515839975
2023-10-21 21:30:52.142,11803,233629,208999,-8080,-2.473894,-8128,-2.4885904
2023-10-21 21:30:52.142,11804,233643,208995,-8161,-2.498694175,-8048,-2.4640964
2023-10-21 21:30:52.142,11805,233645,208984,-7885,-2.414189875,-8050,-2.46470875
2023-10-21 21:30:52.142,11806,233649,208990,-7918,-2.42429365,-8136,-2.4910398
2023-10-21 21:30:52.142,11807,233675,208966,-7978,-2.44266415,-8368,-2.5620724
2023-10-21 21:30:52.142,11808,233648,208967,-8115,-2.484610125,-8795,-2.692809125
2023-10-21 21:30:52.142,11809,233647,208966,-7994,-2.44756295,-9112,-2.7898666
2023-10-21 21:30:52.172,11810,233674,208973,-7935,-2.429498625,-9216,-2.8217088
2023-10-21 21:30:52.172,11811,233675,208964,-7942,-2.43164185,-9036,-2.7665973
2023-10-21 21:30:52.172,11812,233675,208970,-7686,-2.35326105,-8571,-2.624225925
2023-10-21 21:30:52.172,11813,233686,208964,-7842,-2.40102435,-8044,-2.4628717
2023-10-21 21:30:52.172,11814,233680,208958,-7877,-2.411740475,-7701,-2.357853675
2023-10-21 21:30:52.172,11815,233698,208959,-7477,-2.289270475,-7551,-2.311927425
2023-10-21 21:30:52.172,11816,233714,208989,-7752,-2.3734686,-7524,-2.3036607
2023-10-21 21:30:52.204,11817,233739,208972,-7688,-2.3538734,-7694,-2.35571045
2023-10-21 21:30:52.204,11818,233746,208991,-7516,-2.3012113,-8023,-2.456442025
2023-10-21 21:30:52.204,11819,233762,208999,-7511,-2.299680425,-8281,-2.535435175
2023-10-21 21:30:52.204,11820,233784,209004,-7613,-2.330910275,-8347,-2.555642725
2023-10-21 21:30:52.204,11821,233771,209006,-7774,-2.38020445,-8247,-2.525025225
2023-10-21 21:30:52.204,11822,233800,209007,-7991,-2.446644425,-8054,-2.46593345
2023-10-21 21:30:52.204,11823,233805,209001,-7547,-2.310702725,-7918,-2.42429365
2023-10-21 21:30:52.204,11824,233820,209009,-7226,-2.21242055,-7909,-2.421538075
2023-10-21 21:30:52.204,11825,233825,209012,-7242,-2.21731935,-7985,-2.444807375
2023-10-21 21:30:52.237,11826,233856,209015,-7571,-2.318050925,-8042,-2.46225935
2023-10-21 21:30:52.237,11827,233867,209021,-7664,-2.3465252,-8059,-2.467464325
2023-10-21 21:30:52.237,11828,233891,209016,-7506,-2.29814955,-8087,-2.476037225
2023-10-21 21:30:52.237,11829,233876,209020,-7461,-2.284371675,-8076,-2.4726693
2023-10-21 21:30:52.237,11830,233907,209013,-7153,-2.190069775,-8035,-2.460116125
2023-10-21 21:30:52.237,11831,233923,209040,-7273,-2.226810775,-7983,-2.444195025
2023-10-21 21:30:52.237,11832,233957,209031,-7462,-2.28467785,-7934,-2.42919245
2023-10-21 21:30:52.264,11833,233937,209034,-7397,-2.264776475,-7901,-2.419088675
2023-10-21 21:30:52.264,11834,233946,209026,-7358,-2.25283565,-7882,-2.41327135
2023-10-21 21:30:52.264,11835,233939,209038,-7300,-2.2350775,-7860,-2.4065355
2023-10-21 21:30:52.264,11836,233929,209011,-7414,-2.26998145,-7823,-2.395207025
2023-10-21 21:30:52.264,11837,233909,209011,-7038,-2.15485965,-7779,-2.381735325
2023-10-21 21:30:52.295,11838,233858,208992,-7341,-2.247630675,-7741,-2.370100675
2023-10-21 21:30:52.295,11839,233806,208977,-7406,-2.26753205,-7718,-2.36305865
2023-10-21 21:30:52.295,11840,233702,208945,-7290,-2.23201575,-7702,-2.35815985
2023-10-21 21:30:52.295,11841,233626,208905,-7426,-2.27365555,-7680,-2.351424
2023-10-21 21:30:52.295,11842,233514,208861,-7092,-2.1713931,-7652,-2.3428511
2023-10-21 21:30:52.295,11843,233397,208813,-7070,-2.16465725,-7632,-2.3367276
2023-10-21 21:30:52.295,11844,233305,208768,-7199,-2.204153825,-7615,-2.331522625
2023-10-21 21:30:52.332,11845,233182,208718,-7116,-2.1787413,-7593,-2.324786775
2023-10-21 21:30:52.332,11846,233041,208676,-7087,-2.169862225,-7570,-2.31774475
2023-10-21 21:30:52.332,11847,232942,208620,-6956,-2.1297533,-7548,-2.3110089
2023-10-21 21:30:52.332,11848,232828,208580,-6995,-2.141694125,-7531,-2.305803925
2023-10-21 21:30:52.332,11849,232727,208554,-7294,-2.23324045,-7515,-2.300905125
2023-10-21 21:30:52.332,11850,232611,208529,-6974,-2.13526445,-7489,-2.292944575
2023-10-21 21:30:52.357,11851,232510,208474,-6687,-2.047392225,-7456,-2.2828408
2023-10-21 21:30:52.357,11852,232418,208445,-6593,-2.018611775,-7427,-2.273961725
2023-10-21 21:30:52.357,11853,232326,208409,-6581,-2.014937675,-7407,-2.267838225
2023-10-21 21:30:52.357,11854,232268,208387,-6414,-1.96380645,-7388,-2.2620209
2023-10-21 21:30:52.357,11855,232180,208379,-6271,-1.920023425,-7374,-2.25773445
2023-10-21 21:30:52.391,11856,232136,208345,-6387,-1.955539725,-7368,-2.2558974
2023-10-21 21:30:52.391,11857,232106,208336,-6349,-1.943905075,-7365,-2.254978875
2023-10-21 21:30:52.391,11858,232035,208335,-6122,-1.87440335,-7358,-2.25283565
2023-10-21 21:30:52.391,11859,232024,208327,-5990,-1.83398825,-7341,-2.247630675
2023-10-21 21:30:52.391,11860,231996,208320,-6128,-1.8762404,-7314,-2.23936395
2023-10-21 21:30:52.391,11861,231986,208316,-6284,-1.9240037,-7293,-2.232934275
2023-10-21 21:30:52.391,11862,231954,208320,-6177,-1.891242975,-7283,-2.229872525
2023-10-21 21:30:52.424,11863,231945,208302,-5938,-1.81806715,-7273,-2.226810775
2023-10-21 21:30:52.424,11864,231950,208299,-5712,-1.7488716,-7252,-2.2203811
2023-10-21 21:30:52.424,11865,231956,208311,-5744,-1.7586692,-7224,-2.2118082
2023-10-21 21:30:52.424,11866,231936,208305,-5755,-1.762037125,-7195,-2.202929125
2023-10-21 21:30:52.424,11867,231951,208307,-5541,-1.696515675,-7165,-2.193743875
2023-10-21 21:30:52.424,11868,231958,208315,-5160,-1.579863,-7131,-2.183333925
2023-10-21 21:30:52.453,11869,231982,208328,-5114,-1.56577895,-7091,-2.171086925
2023-10-21 21:30:52.453,11870,231962,208340,-4897,-1.499338975,-7046,-2.15730905
2023-10-21 21:30:52.453,11871,231996,208350,-4727,-1.447289225,-6834,-2.09239995
2023-10-21 21:30:52.453,11872,231993,208362,-4877,-1.493215475,-6615,-2.025347625
2023-10-21 21:30:52.453,11873,232046,208351,-4658,-1.42616315,-6498,-1.98952515
2023-10-21 21:30:52.485,11874,232052,208381,-4559,-1.395851825,-6445,-1.973297875
2023-10-21 21:30:52.485,11875,232083,208369,-4483,-1.372582525,-6375,-1.951865625
2023-10-21 21:30:52.485,11876,232097,208381,-4219,-1.291752325,-6293,-1.926759275
2023-10-21 21:30:52.485,11877,232135,208410,-4184,-1.2810362,-6263,-1.917574025
2023-10-21 21:30:52.485,11878,232157,208398,-3980,-1.2185765,-6278,-1.92216665
2023-10-21 21:30:52.485,11879,232180,208425,-3939,-1.206023325,-6271,-1.920023425
2023-10-21 21:30:52.517,11880,232224,208435,-4001,-1.225006175,-6247,-1.912675225
2023-10-21 21:30:52.517,11881,232230,208439,-3743,-1.146013025,-6229,-1.907164075
2023-10-21 21:30:52.517,11882,232272,208460,-3552,-1.0875336,-6167,-1.888181225
2023-10-21 21:30:52.517,11883,232294,208458,-3623,-1.109272025,-6105,-1.869198375
2023-10-21 21:30:52.517,11884,232353,208501,-3377,-1.033952975,-5963,-1.825721525
2023-10-21 21:30:52.517,11885,232377,208503,-3277,-1.003335475,-5712,-1.7488716
2023-10-21 21:30:52.547,11886,232423,208521,-3179,-0.973330325,-5439,-1.665285825
2023-10-21 21:30:52.547,11887,232442,208541,-3050,-0.93383375,-5208,-1.5945594
2023-10-21 21:30:52.547,11888,232489,208562,-3105,-0.950673375,-5039,-1.542815825
2023-10-21 21:30:52.547,11889,232529,208572,-3260,-0.9981305,-4945,-1.514035375
2023-10-21 21:30:52.576,11890,232546,208577,-3105,-0.950673375,-4850,-1.48494875
2023-10-21 21:30:52.576,11891,232568,208587,-2839,-0.869230825,-4737,-1.450350975
2023-10-21 21:30:52.576,11892,232602,208597,-2908,-0.8903569,-4624,-1.4157532
2023-10-21 21:30:52.576,11893,232626,208601,-2956,-0.9050533,-4506,-1.37962455
2023-10-21 21:30:52.576,11894,232640,208618,-2903,-0.888826025,-4398,-1.34655765
2023-10-21 21:30:52.576,11895,232658,208610,-2650,-0.81136375,-4284,-1.3116537
2023-10-21 21:30:52.576,11896,232678,208618,-2897,-0.886988975,-4175,-1.278280625
2023-10-21 21:30:52.608,11897,232668,208630,-2887,-0.883927225,-4086,-1.25103105
2023-10-21 21:30:52.608,11898,232675,208636,-2205,-0.675115875,-3969,-1.215208575
2023-10-21 21:30:52.608,11899,232685,208642,-2402,-0.73543235,-3846,-1.17754905
2023-10-21 21:30:52.608,11900,232682,208641,-2643,-0.809220525,-3764,-1.1524427
2023-10-21 21:30:52.608,11901,232664,208639,-2621,-0.802484675,-3672,-1.1242746
2023-10-21 21:30:52.608,11902,232678,208633,-2613,-0.800035275,-3550,-1.08692125
2023-10-21 21:30:52.640,11903,232657,208637,-2599,-0.795748825,-3415,-1.045587625
2023-10-21 21:30:52.640,11904,232655,208647,-2146,-0.65705155,-3287,-1.006397225
2023-10-21 21:30:52.640,11905,232676,208637,-2164,-0.6625627,-3223,-0.986802025
2023-10-21 21:30:52.640,11906,232632,208645,-2224,-0.6809332,-3231,-0.989251425
2023-10-21 21:30:52.640,11907,232627,208647,-2200,-0.673585,-3217,-0.984964975
2023-10-21 21:30:52.640,11908,232614,208641,-2011,-0.615717925,-3156,-0.9662883
2023-10-21 21:30:52.640,11909,232610,208649,-2174,-0.66562445,-3113,-0.953122775
2023-10-21 21:30:52.672,11910,232608,208643,-2069,-0.633476075,-3102,-0.94975485
2023-10-21 21:30:52.672,11911,232613,208660,-2036,-0.6233723,-3091,-0.946386925
2023-10-21 21:30:52.672,11912,232590,208645,-1784,-0.5462162,-3088,-0.9454684
2023-10-21 21:30:52.672,11913,232591,208652,-1692,-0.5180481,-3032,-0.9283226
2023-10-21 21:30:52.672,11914,232601,208667,-1476,-0.4519143,-2986,-0.91423855
2023-10-21 21:30:52.672,11915,232595,208659,-1749,-0.535500075,-2938,-0.89954215
2023-10-21 21:30:52.672,11916,232593,208671,-1883,-0.576527525,-2809,-0.860045575
2023-10-21 21:30:52.703,11917,232610,208680,-1710,-0.52355925,-2753,-0.842899775
2023-10-21 21:30:52.703,11918,232623,208690,-1757,-0.537949475,-2738,-0.83830715
2023-10-21 21:30:52.703,11919,232637,208711,-1941,-0.594285675,-2719,-0.832489825
2023-10-21 21:30:52.703,11920,232665,208712,-2051,-0.627964925,-2695,-0.825141625
2023-10-21 21:30:52.703,11921,232660,208728,-2115,-0.647560125,-2645,-0.809832875
2023-10-21 21:30:52.703,11922,232681,208746,-2021,-0.618779675,-2593,-0.793911775
2023-10-21 21:30:52.734,11923,232704,208762,-1961,-0.600409175,-2546,-0.77952155
2023-10-21 21:30:52.734,11924,232725,208771,-1939,-0.593673325,-2495,-0.763906625
2023-10-21 21:30:52.734,11925,232736,208778,-2183,-0.668380025,-2435,-0.745536125
2023-10-21 21:30:52.734,11926,232754,208807,-1973,-0.604083275,-2341,-0.716755675
2023-10-21 21:30:52.734,11927,232802,208820,-1734,-0.53090745,-2249,-0.688587575
2023-10-21 21:30:52.734,11928,232829,208832,-1687,-0.516517225,-2208,-0.6760344
2023-10-21 21:30:52.734,11929,232826,208855,-1621,-0.496309675,-2169,-0.664093575
2023-10-21 21:30:52.768,11930,232861,208892,-1739,-0.532438325,-2103,-0.643886025
2023-10-21 21:30:52.768,11931,232896,208920,-1800,-0.551115,-1998,-0.61173765
2023-10-21 21:30:52.768,11932,232930,208932,-1511,-0.462630425,-1899,-0.581426325
2023-10-21 21:30:52.768,11933,232982,208984,-1383,-0.423440025,-1855,-0.567954625
2023-10-21 21:30:52.768,11934,233010,209012,-1630,-0.49906525,-1838,-0.56274965
2023-10-21 21:30:52.768,11935,233042,209030,-1680,-0.514374,-1849,-0.566117575
2023-10-21 21:30:52.798,11936,233099,209070,-1408,-0.4310944,-1846,-0.56519905
2023-10-21 21:30:52.798,11937,233132,209111,-1450,-0.44395375,-1841,-0.563668175
2023-10-21 21:30:52.798,11938,233171,209148,-1489,-0.455894575,-1844,-0.5645867
2023-10-21 21:30:52.798,11939,233225,209148,-1756,-0.5376433,-1846,-0.56519905
2023-10-21 21:30:52.798,11940,233255,209171,-1653,-0.506107275,-1846,-0.56519905
2023-10-21 21:30:52.798,11941,233282,209194,-1176,-0.3600618,-1854,-0.56764845
2023-10-21 21:30:52.798,11942,233313,209213,-1191,-0.364654425,-1888,-0.5780584
2023-10-21 21:30:52.798,11943,233345,209225,-1517,-0.464467475,-1916,-0.5866313
2023-10-21 21:30:52.798,11944,233363,209235,-1814,-0.55540145,-1942,-0.59459185
2023-10-21 21:30:52.829,11945,233382,209250,-2062,-0.63133285,-1957,-0.599184475
2023-10-21 21:30:52.829,11946,233431,209250,-2387,-0.730839725,-1959,-0.599796825
2023-10-21 21:30:52.829,11947,233441,209276,-2926,-0.89586805,-1946,-0.59581655
2023-10-21 21:30:52.829,11948,233484,209281,-3060,-0.9368955,-1919,-0.587549825
2023-10-21 21:30:52.829,11949,233522,209297,-2966,-0.90811505,-1878,-0.57499665
2023-10-21 21:30:52.829,11950,233558,209334,-2263,-0.692874025,-1787,-0.547134725
2023-10-21 21:30:52.829,11951,233599,209351,-1137,-0.348120975,-1742,-0.53335685
2023-10-21 21:30:52.860,11952,233614,209373,-812,-0.2486141,-1731,-0.529988925
2023-10-21 21:30:52.860,11953,233673,209389,-850,-0.26024875,-1711,-0.523865425
2023-10-21 21:30:52.860,11954,233702,209414,-1102,-0.33740485,-1661,-0.508556675
2023-10-21 21:30:52.860,11955,233718,209417,-1226,-0.37537055,-1618,-0.49539115
2023-10-21 21:30:52.860,11956,233734,209442,-1272,-0.3894546,-1593,-0.487736775
2023-10-21 21:30:52.891,11957,233764,209457,-1495,-0.457731625,-1579,-0.483450325
2023-10-21 21:30:52.891,11958,233785,209487,-1531,-0.468753925,-1560,-0.477633
2023-10-21 21:30:52.891,11959,233810,209487,-1396,-0.4274203,-1533,-0.469366275
2023-10-21 21:30:52.891,11960,233853,209491,-1401,-0.428951175,-1516,-0.4641613
2023-10-21 21:30:52.922,11961,233877,209508,-1471,-0.450383425,-1518,-0.46477365
2023-10-21 21:30:52.922,11962,233878,209515,-1291,-0.395271925,-1534,-0.46967245
2023-10-21 21:30:52.922,11963,233883,209533,-1198,-0.36679765,-1568,-0.4800824
2023-10-21 21:30:52.922,11964,233912,209526,-1433,-0.438748775,-2124,-0.6503157
2023-10-21 21:30:52.922,11965,233912,209526,-1475,-0.451608125,-2615,-0.800647625
2023-10-21 21:30:52.922,11966,233941,209530,-1405,-0.430175875,-2883,-0.882702525
2023-10-21 21:30:52.955,11967,233956,209542,-1456,-0.4457908,-2756,-0.8438183
2023-10-21 21:30:52.955,11968,233977,209561,-1769,-0.541623575,-2246,-0.68766905
2023-10-21 21:30:52.955,11969,233993,209564,-1532,-0.4690601,-1656,-0.5070258
2023-10-21 21:30:52.955,11970,234004,209566,-1570,-0.48069475,-1212,-0.3710841
2023-10-21 21:30:52.955,11971,234025,209577,-1609,-0.492635575,-965,-0.295458875
2023-10-21 21:30:52.955,11972,234064,209592,-1673,-0.512230775,-888,-0.2718834
2023-10-21 21:30:52.983,11973,234070,209612,-1650,-0.50518875,-968,-0.2963774
2023-10-21 21:30:52.983,11974,234096,209620,-1562,-0.47824535,-1204,-0.3686347
2023-10-21 21:30:52.983,11975,234127,209635,-1755,-0.537337125,-1469,-0.449771075
2023-10-21 21:30:52.983,11976,234143,209655,-1780,-0.5449915,-1606,-0.49171705
2023-10-21 21:30:52.983,11977,234182,209663,-1520,-0.465386,-1592,-0.4874306
2023-10-21 21:30:52.983,11978,234208,209658,-1816,-0.5560138,-1474,-0.45130195
2023-10-21 21:30:52.983,11979,234239,209680,-1740,-0.5327445,-1314,-0.40231395
2023-10-21 21:30:53.017,11980,234256,209675,-1786,-0.54682855,-1231,-0.376901425
2023-10-21 21:30:53.017,11981,234299,209691,-1558,-0.47702065,-1268,-0.3882299
2023-10-21 21:30:53.017,11982,234318,209707,-1918,-0.58724365,-1357,-0.415479475
2023-10-21 21:30:53.017,11983,234353,209730,-2351,-0.719817425,-1393,-0.426501775
2023-10-21 21:30:53.017,11984,234366,209730,-1898,-0.58112015,-1413,-0.432625275
2023-10-21 21:30:53.017,11985,234393,209739,-1640,-0.502127,-1447,-0.443035225
2023-10-21 21:30:53.017,11986,234414,209760,-1888,-0.5780584,-1455,-0.445484625
2023-10-21 21:30:53.046,11987,234438,209770,-2428,-0.7433929,-1449,-0.443647575
2023-10-21 21:30:53.046,11988,234462,209780,-2292,-0.7017531,-1449,-0.443647575
2023-10-21 21:30:53.046,11989,234486,209784,-2084,-0.6380687,-1465,-0.448546375
2023-10-21 21:30:53.046,11990,234505,209780,-2220,-0.6797085,-1497,-0.458343975
2023-10-21 21:30:53.046,11991,234519,209768,-2264,-0.6931802,-1537,-0.470590975
2023-10-21 21:30:53.080,11992,234526,209770,-2258,-0.69134315,-1571,-0.481000925
2023-10-21 21:30:53.080,11993,234521,209761,-2189,-0.670217075,-1595,-0.488349125
2023-10-21 21:30:53.080,11994,234476,209745,-2209,-0.676340575,-1612,-0.4935541
2023-10-21 21:30:53.080,11995,234420,209711,-2266,-0.69379255,-1629,-0.498759075
2023-10-21 21:30:53.080,11996,234349,209665,-2237,-0.684913475,-1649,-0.504882575
2023-10-21 21:30:53.080,11997,234277,209635,-1953,-0.597959775,-1669,-0.511006075
2023-10-21 21:30:53.080,11998,234177,209599,-2217,-0.678789975,-1685,-0.515904875
2023-10-21 21:30:53.109,11999,234083,209553,-2214,-0.67787145,-1701,-0.520803675
2023-10-21 21:30:53.109,12000,233967,209503,-2049,-0.627352575,-1726,-0.52845805
2023-10-21 21:30:53.109,12001,233878,209470,-2213,-0.677565275,-1753,-0.536724775
2023-10-21 21:30:53.109,12002,233805,209437,-2050,-0.62765875,-1775,-0.543460625
2023-10-21 21:30:53.109,12003,233713,209395,-1893,-0.579589275,-1800,-0.551115
2023-10-21 21:30:53.109,12004,233612,209345,-1896,-0.5805078,-1839,-0.563055825
2023-10-21 21:30:53.139,12005,233560,209316,-1916,-0.5866313,-1888,-0.5780584
2023-10-21 21:30:53.139,12006,233484,209291,-1771,-0.542235925,-1931,-0.591223925
2023-10-21 21:30:53.139,12007,233394,209260,-2051,-0.627964925,-1971,-0.603470925
2023-10-21 21:30:53.139,12008,233331,209256,-1842,-0.56397435,-2016,-0.6172488
2023-10-21 21:30:53.172,12009,233282,209234,-1641,-0.502433175,-2060,-0.6307205
2023-10-21 21:30:53.172,12010,233233,209222,-1997,-0.611431475,-2106,-0.64480455
2023-10-21 21:30:53.172,12011,233199,209209,-1988,-0.6086759,-2134,-0.65337745
2023-10-21 21:30:53.172,12012,233137,209195,-1835,-0.561831125,-2157,-0.660419475
2023-10-21 21:30:53.172,12013,233113,209174,-1744,-0.5339692,-2184,-0.6686862
2023-10-21 21:30:53.172,12014,233092,209176,-1988,-0.6086759,-2203,-0.674503525
2023-10-21 21:30:53.172,12015,233079,209165,-1899,-0.581426325,-2207,-0.675728225
2023-10-21 21:30:53.201,12016,233048,209179,-1657,-0.507331975,-2206,-0.67542205
2023-10-21 21:30:53.201,12017,233032,209135,-1832,-0.5609126,-2205,-0.675115875
2023-10-21 21:30:53.201,12018,233055,209143,-1682,-0.51498635,-2203,-0.674503525
2023-10-21 21:30:53.201,12019,233038,209163,-1685,-0.515904875,-2192,-0.6711356
2023-10-21 21:30:53.201,12020,233043,209147,-1777,-0.544072975,-2169,-0.664093575
2023-10-21 21:30:53.201,12021,233072,209168,-1618,-0.49539115,-2141,-0.655520675
2023-10-21 21:30:53.234,12022,233070,209145,-1760,-0.538868,-2112,-0.6466416
2023-10-21 21:30:53.234,12023,233064,209158,-1840,-0.563362,-2081,-0.637150175
2023-10-21 21:30:53.234,12024,233097,209159,-1580,-0.4837565,-2053,-0.628577275
2023-10-21 21:30:53.234,12025,233146,209189,-1695,-0.518966625,-2028,-0.6209229
2023-10-21 21:30:53.234,12026,233136,209177,-1433,-0.438748775,-1998,-0.61173765
2023-10-21 21:30:53.234,12027,233148,209163,-1608,-0.4923294,-1968,-0.6025524
2023-10-21 21:30:53.234,12028,233178,209177,-1739,-0.532438325,-1946,-0.59581655
2023-10-21 21:30:53.234,12029,233184,209178,-1650,-0.50518875,-1925,-0.589386875
2023-10-21 21:30:53.264,12030,233218,209181,-1584,-0.4849812,-1902,-0.58234485
2023-10-21 21:30:53.264,12031,233237,209201,-1385,-0.424052375,-1888,-0.5780584
2023-10-21 21:30:53.264,12032,233277,209214,-1479,-0.452832825,-1879,-0.575302825
2023-10-21 21:30:53.264,12033,233312,209227,-1522,-0.46599835,-1870,-0.57254725
2023-10-21 21:30:53.264,12034,233315,209219,-1818,-0.55662615,-1863,-0.570404025
2023-10-21 21:30:53.264,12035,233355,209253,-1485,-0.454669875,-1852,-0.5670361
2023-10-21 21:30:53.264,12036,233346,209245,-1383,-0.423440025,-1840,-0.563362
2023-10-21 21:30:53.296,12037,233394,209253,-1501,-0.459568675,-1831,-0.560606425
2023-10-21 21:30:53.296,12038,233412,209265,-1487,-0.455282225,-1815,-0.555707625
2023-10-21 21:30:53.296,12039,233443,209280,-1587,-0.485899725,-1795,-0.549584125
2023-10-21 21:30:53.296,12040,233469,209286,-1607,-0.492023225,-1781,-0.545297675
2023-10-21 21:30:53.296,12041,233498,209290,-1491,-0.456506925,-1769,-0.541623575
2023-10-21 21:30:53.328,12042,233532,209293,-1386,-0.42435855,-1753,-0.536724775
2023-10-21 21:30:53.328,12043,233559,209309,-1844,-0.5645867,-1729,-0.529376575
2023-10-21 21:30:53.328,12044,233603,209325,-1841,-0.563668175,-1707,-0.522640725
2023-10-21 21:30:53.328,12045,233623,209335,-1672,-0.5119246,-1689,-0.517129575
2023-10-21 21:30:53.328,12046,233656,209328,-1742,-0.53335685,-1677,-0.513455475
2023-10-21 21:30:53.328,12047,233677,209335,-1409,-0.431400575,-1665,-0.509781375
2023-10-21 21:30:53.328,12048,233694,209337,-1521,-0.465692175,-1651,-0.505494925
2023-10-21 21:30:53.362,12049,233735,209342,-1677,-0.513455475,-1636,-0.5009023
2023-10-21 21:30:53.362,12050,233751,209351,-1683,-0.515292525,-1621,-0.496309675
2023-10-21 21:30:53.362,12051,233753,209334,-1803,-0.552033525,-1607,-0.492023225
2023-10-21 21:30:53.362,12052,233779,209346,-1658,-0.50763815,-1592,-0.4874306
2023-10-21 21:30:53.362,12053,233761,209339,-1646,-0.50396405,-1574,-0.48191945
2023-10-21 21:30:53.362,12054,233758,209339,-1866,-0.57132255,-1562,-0.47824535
2023-10-21 21:30:53.390,12055,233767,209319,-1818,-0.55662615,-1555,-0.476102125
2023-10-21 21:30:53.390,12056,233754,209327,-1463,-0.447934025,-1550,-0.47457125
2023-10-21 21:30:53.390,12057,233761,209319,-1522,-0.46599835,-1543,-0.472428025
2023-10-21 21:30:53.390,12058,233743,209322,-1583,-0.484675025,-1535,-0.469978625
2023-10-21 21:30:53.390,12059,233762,209324,-1705,-0.522028375,-1530,-0.46844775
2023-10-21 21:30:53.422,12060,233730,209306,-1556,-0.4764083,-1537,-0.470590975
2023-10-21 21:30:53.422,12061,233721,209293,-1490,-0.45620075,-1553,-0.475489775
2023-10-21 21:30:53.422,12062,233707,209289,-1669,-0.511006075,-1567,-0.479776225
2023-10-21 21:30:53.422,12063,233682,209290,-1598,-0.48926765,-1582,-0.48436885
2023-10-21 21:30:53.422,12064,233666,209277,-1586,-0.48559355,-1596,-0.4886553
2023-10-21 21:30:53.422,12065,233670,209262,-1571,-0.481000925,-1606,-0.49171705
2023-10-21 21:30:53.422,12066,233643,209252,-1513,-0.463242775,-1614,-0.49416645
2023-10-21 21:30:53.454,12067,233636,209248,-1494,-0.45742545,-1621,-0.496309675
2023-10-21 21:30:53.454,12068,233634,209241,-1448,-0.4433414,-1629,-0.498759075
2023-10-21 21:30:53.454,12069,233653,209242,-1322,-0.40476335,-1643,-0.503045525
2023-10-21 21:30:53.454,12070,233640,209246,-1446,-0.44272905,-1661,-0.508556675
2023-10-21 21:30:53.454,12071,233627,209235,-1517,-0.464467475,-1677,-0.513455475
2023-10-21 21:30:53.454,12072,233631,209247,-1677,-0.513455475,-1687,-0.516517225
2023-10-21 21:30:53.483,12073,233637,209246,-1594,-0.48804295,-1684,-0.5155987
2023-10-21 21:30:53.483,12074,233648,209259,-1575,-0.482225625,-1673,-0.512230775
2023-10-21 21:30:53.483,12075,233675,209248,-1391,-0.425889425,-1666,-0.51008755
2023-10-21 21:30:53.483,12076,233675,209258,-1375,-0.420990625,-1664,-0.5094752
2023-10-21 21:30:53.483,12077,233690,209275,-1585,-0.485287375,-1662,-0.50886285
2023-10-21 21:30:53.483,12078,233685,209267,-1825,-0.558769375,-1655,-0.506719625
2023-10-21 21:30:53.483,12079,233707,209277,-1623,-0.496922025,-1650,-0.50518875
2023-10-21 21:30:53.483,12080,233728,209297,-1619,-0.495697325,-1647,-0.504270225
2023-10-21 21:30:53.517,12081,233766,209312,-1609,-0.492635575,-1640,-0.502127
2023-10-21 21:30:53.517,12082,233769,209314,-1529,-0.468141575,-1622,-0.49661585
2023-10-21 21:30:53.517,12083,233816,209344,-1638,-0.50151465,-1598,-0.48926765
2023-10-21 21:30:53.517,12084,233810,209343,-1483,-0.454057525,-1579,-0.483450325
2023-10-21 21:30:53.517,12085,233813,209341,-1472,-0.4506896,-1569,-0.480388575
2023-10-21 21:30:53.517,12086,233860,209356,-1580,-0.4837565,-1558,-0.47702065
2023-10-21 21:30:53.517,12087,233888,209356,-1634,-0.50028995,-1544,-0.4727342
2023-10-21 21:30:53.545,12088,233916,209414,-1697,-0.519578975,-1534,-0.46967245
2023-10-21 21:30:53.545,12089,233958,209421,-1475,-0.451608125,-1528,-0.4678354
2023-10-21 21:30:53.545,12090,233972,209446,-1448,-0.4433414,-1524,-0.4666107
2023-10-21 21:30:53.545,12091,234013,209466,-1591,-0.487124425,-1519,-0.465079825
2023-10-21 21:30:53.545,12092,234049,209493,-1421,-0.435074675,-1514,-0.46354895
2023-10-21 21:30:53.578,12093,234096,209534,-1568,-0.4800824,-1507,-0.461405725
2023-10-21 21:30:53.578,12094,234120,209522,-1749,-0.535500075,-1507,-0.461405725
2023-10-21 21:30:53.578,12095,234151,209531,-1714,-0.52478395,-1514,-0.46354895
2023-10-21 21:30:53.578,12096,234160,209541,-1648,-0.5045764,-1524,-0.4666107
2023-10-21 21:30:53.578,12097,234200,209573,-1709,-0.523253075,-1537,-0.470590975
2023-10-21 21:30:53.578,12098,234207,209583,-1551,-0.474877425,-1554,-0.47579595
2023-10-21 21:30:53.578,12099,234234,209590,-1616,-0.4947788,-1573,-0.481613275
2023-10-21 21:30:53.611,12100,234257,209588,-1534,-0.46967245,-1587,-0.485899725
2023-10-21 21:30:53.611,12101,234302,209605,-1553,-0.475489775,-1591,-0.487124425
2023-10-21 21:30:53.611,12102,234315,209619,-2160,-0.661338,-1586,-0.48559355
2023-10-21 21:30:53.611,12103,234338,209611,-2636,-0.8070773,-1580,-0.4837565
2023-10-21 21:30:53.611,12104,234360,209637,-2906,-0.88974455,-1581,-0.484062675
2023-10-21 21:30:53.611,12105,234399,209645,-3003,-0.919443525,-1586,-0.48559355
2023-10-21 21:30:53.641,12106,234437,209663,-2744,-0.8401442,-1587,-0.485899725
2023-10-21 21:30:53.641,12107,234433,209673,-2421,-0.741249675,-1586,-0.48559355
2023-10-21 21:30:53.641,12108,234457,209686,-1749,-0.535500075,-1583,-0.484675025
2023-10-21 21:30:53.641,12109,234481,209685,-945,-0.289335375,-1573,-0.481613275
2023-10-21 21:30:53.641,12110,234496,209679,-822,-0.25167585,-1559,-0.477326825
2023-10-21 21:30:53.672,12111,234529,209709,-1177,-0.360367975,-1550,-0.47457125
2023-10-21 21:30:53.672,12112,234549,209722,-1317,-0.403232475,-1552,-0.4751836
2023-10-21 21:30:53.672,12113,234573,209725,-1412,-0.4323191,-1568,-0.4800824
2023-10-21 21:30:53.672,12114,234602,209745,-1714,-0.52478395,-1589,-0.486512075
2023-10-21 21:30:53.672,12115,234605,209749,-1362,-0.41701035,-1605,-0.491410875
2023-10-21 21:30:53.672,12116,234641,209751,-1362,-0.41701035,-1610,-0.49294175
2023-10-21 21:30:53.672,12117,234661,209758,-1652,-0.5058011,-1608,-0.4923294
2023-10-21 21:30:53.702,12118,234659,209779,-1686,-0.51621105,-1607,-0.492023225
2023-10-21 21:30:53.702,12119,234697,209783,-1374,-0.42068445,-1625,-0.497534375
2023-10-21 21:30:53.702,12120,234712,209806,-1436,-0.4396673,-1678,-0.51376165
2023-10-21 21:30:53.702,12121,234713,209819,-1637,-0.501208475,-1766,-0.54070505
2023-10-21 21:30:53.702,12122,234749,209795,-1777,-0.544072975,-1875,-0.574078125
2023-10-21 21:30:53.702,12123,234749,209804,-1632,-0.4996776,-2086,-0.63868105
2023-10-21 21:30:53.734,12124,234769,209816,-1614,-0.49416645,-2267,-0.694098725
2023-10-21 21:30:53.734,12125,234769,209813,-1425,-0.436299375,-2222,-0.68032085
2023-10-21 21:30:53.734,12126,234785,209824,-1589,-0.486512075,-2110,-0.64602925
2023-10-21 21:30:53.734,12127,234810,209817,-1759,-0.538561825,-1884,-0.5768337
2023-10-21 21:30:53.734,12128,234803,209838,-1583,-0.484675025,-1598,-0.48926765
2023-10-21 21:30:53.766,12129,234842,209832,-1692,-0.5180481,-1424,-0.4359932
2023-10-21 21:30:53.766,12130,234844,209842,-1518,-0.46477365,-1398,-0.42803265
2023-10-21 21:30:53.766,12131,234866,209852,-1644,-0.5033517,-1497,-0.458343975
2023-10-21 21:30:53.766,12132,234901,209864,-1579,-0.483450325,-1588,-0.4862059
2023-10-21 21:30:53.766,12133,234908,209861,-1593,-0.487736775,-1629,-0.498759075
2023-10-21 21:30:53.766,12134,234940,209872,-1609,-0.492635575,-1619,-0.495697325
2023-10-21 21:30:53.797,12135,234963,209885,-1616,-0.4947788,-1484,-0.4543637
2023-10-21 21:30:53.797,12136,234997,209890,-1669,-0.511006075,-1399,-0.428338825
2023-10-21 21:30:53.797,12137,234993,209911,-1596,-0.4886553,-1357,-0.415479475
2023-10-21 21:30:53.797,12138,235038,209910,-1508,-0.4617119,-1370,-0.41945975
2023-10-21 21:30:53.797,12139,235040,209915,-1504,-0.4604872,-1423,-0.435687025
2023-10-21 21:30:53.797,12140,235079,209925,-1597,-0.488961475,-1492,-0.4568131
2023-10-21 21:30:53.828,12141,235107,209938,-1733,-0.530601275,-1550,-0.47457125
2023-10-21 21:30:53.828,12142,235129,209960,-1716,-0.5253963,-1580,-0.4837565
2023-10-21 21:30:53.828,12143,235153,209952,-1777,-0.544072975,-1588,-0.4862059
2023-10-21 21:30:53.828,12144,235185,209954,-1793,-0.548971775,-1588,-0.4862059
2023-10-21 21:30:53.828,12145,235208,209966,-1641,-0.502433175,-1582,-0.48436885
2023-10-21 21:30:53.828,12146,235226,209969,-1474,-0.45130195,-1580,-0.4837565
2023-10-21 21:30:53.828,12147,235238,209991,-1936,-0.5927548,-1592,-0.4874306
2023-10-21 21:30:53.860,12148,235269,209999,-1859,-0.569179325,-1615,-0.494472625
2023-10-21 21:30:53.860,12149,235292,209982,-1784,-0.5462162,-1630,-0.49906525
2023-10-21 21:30:53.860,12150,235287,209972,-2091,-0.640211925,-1629,-0.498759075
2023-10-21 21:30:53.860,12151,235265,209981,-1998,-0.61173765,-1617,-0.495084975
2023-10-21 21:30:53.860,12152,235232,209958,-1857,-0.568566975,-1605,-0.491410875
2023-10-21 21:30:53.860,12153,235202,209931,-1784,-0.5462162,-1605,-0.491410875
2023-10-21 21:30:53.860,12154,235107,209905,-1772,-0.5425421,-1611,-0.493247925
2023-10-21 21:30:53.890,12155,235036,209852,-1798,-0.55050265,-1614,-0.49416645
2023-10-21 21:30:53.890,12156,234943,209800,-1571,-0.481000925,-1612,-0.4935541
2023-10-21 21:30:53.890,12157,234844,209765,-1349,-0.413030075,-1609,-0.492635575
2023-10-21 21:30:53.890,12158,234753,209741,-1376,-0.4212968,-1606,-0.49171705
2023-10-21 21:30:53.890,12159,234653,209704,-1498,-0.45865015,-1606,-0.49171705
2023-10-21 21:30:53.890,12160,234580,209656,-1603,-0.490798525,-1610,-0.49294175
2023-10-21 21:30:53.921,12161,234484,209642,-1271,-0.389148425,-1622,-0.49661585
2023-10-21 21:30:53.921,12162,234416,209583,-1224,-0.3747582,-1638,-0.50151465
2023-10-21 21:30:53.921,12163,234347,209578,-1520,-0.465386,-1650,-0.50518875
2023-10-21 21:30:53.921,12164,234288,209556,-1353,-0.414254775,-1664,-0.5094752
2023-10-21 21:30:53.921,12165,234242,209532,-1240,-0.379657,-1679,-0.514067825
2023-10-21 21:30:53.921,12166,234178,209512,-1350,-0.41333625,-1694,-0.51866045
2023-10-21 21:30:53.921,12167,234152,209503,-1236,-0.3784323,-1717,-0.525702475
2023-10-21 21:30:53.951,12168,234107,209493,-1121,-0.343222175,-1750,-0.53580625
2023-10-21 21:30:53.951,12169,234101,209478,-1308,-0.4004769,-1784,-0.5462162
2023-10-21 21:30:53.951,12170,234061,209453,-1221,-0.373839675,-1814,-0.55540145
2023-10-21 21:30:53.951,12171,234051,209465,-1259,-0.385474325,-1833,-0.561218775
2023-10-21 21:30:53.951,12172,234034,209449,-1323,-0.405069525,-1839,-0.563055825
2023-10-21 21:30:53.951,12173,234032,209440,-1096,-0.3355678,-1831,-0.560606425
2023-10-21 21:30:53.983,12174,234034,209457,-1174,-0.35944945,-1811,-0.554482925
2023-10-21 21:30:53.983,12175,234033,209437,-1530,-0.46844775,-1781,-0.545297675
2023-10-21 21:30:53.983,12176,234046,209454,-1501,-0.459568675,-1753,-0.536724775
2023-10-21 21:30:53.983,12177,234048,209460,-1446,-0.44272905,-1729,-0.529376575
2023-10-21 21:30:53.983,12178,234075,209451,-1494,-0.45742545,-1691,-0.517741925
2023-10-21 21:30:54.014,12179,234073,209467,-1567,-0.479776225,-1636,-0.5009023
2023-10-21 21:30:54.014,12180,234111,209482,-1721,-0.526927175,-1578,-0.48314415
2023-10-21 21:30:54.014,12181,234129,209486,-1431,-0.438136425,-1523,-0.466304525
2023-10-21 21:30:54.014,12182,234138,209491,-1707,-0.522640725,-1473,-0.450995775
2023-10-21 21:30:54.014,12183,234191,209506,-1648,-0.5045764,-1430,-0.43783025
2023-10-21 21:30:54.014,12184,234216,209525,-1519,-0.465079825,-1398,-0.42803265
2023-10-21 21:30:54.014,12185,234215,209532,-1658,-0.50763815,-1374,-0.42068445
2023-10-21 21:30:54.046,12186,234261,209547,-1835,-0.561831125,-1354,-0.41456095
2023-10-21 21:30:54.046,12187,234279,209542,-1769,-0.541623575,-1332,-0.4078251
2023-10-21 21:30:54.046,12188,234299,209570,-1722,-0.52723335,-1307,-0.400170725
2023-10-21 21:30:54.046,12189,234354,209579,-1781,-0.545297675,-1291,-0.395271925
2023-10-21 21:30:54.046,12190,234366,209569,-1846,-0.56519905,-1281,-0.392210175
2023-10-21 21:30:54.046,12191,234376,209588,-1990,-0.60928825,-1270,-0.38884225
2023-10-21 21:30:54.077,12192,234424,209602,-1909,-0.584488075,-1266,-0.38761755
2023-10-21 21:30:54.077,12193,234449,209600,-1963,-0.601021525,-1271,-0.389148425
2023-10-21 21:30:54.077,12194,234460,209601,-1981,-0.606532675,-1279,-0.391597825
2023-10-21 21:30:54.077,12195,234482,209610,-2010,-0.61541175,-1293,-0.395884275
2023-10-21 21:30:54.077,12196,234520,209626,-2028,-0.6209229,-1320,-0.404151
2023-10-21 21:30:54.077,12197,234561,209631,-2015,-0.616942625,-1355,-0.414867125
2023-10-21 21:30:54.077,12198,234577,209640,-2099,-0.642661325,-1391,-0.425889425
2023-10-21 21:30:54.077,12199,234599,209644,-2105,-0.644498375,-1427,-0.436911725
2023-10-21 21:30:54.108,12200,234653,209658,-2161,-0.661644175,-1460,-0.4470155
2023-10-21 21:30:54.108,12201,234674,209678,-2141,-0.655520675,-1494,-0.45742545
2023-10-21 21:30:54.108,12202,234725,209680,-2143,-0.656133025,-1529,-0.468141575
2023-10-21 21:30:54.108,12203,234735,209689,-2256,-0.6907308,-1563,-0.478551525
2023-10-21 21:30:54.108,12204,234762,209697,-2241,-0.686138175,-1594,-0.48804295
2023-10-21 21:30:54.108,12205,234822,209721,-2290,-0.70114075,-1625,-0.497534375
2023-10-21 21:30:54.108,12206,234841,209723,-2117,-0.648172475,-1654,-0.50641345
2023-10-21 21:30:54.139,12207,234857,209736,-2069,-0.633476075,-1680,-0.514374
2023-10-21 21:30:54.139,12208,234848,209741,-2289,-0.700834575,-1704,-0.5217222
2023-10-21 21:30:54.139,12209,234867,209759,-2171,-0.664705925,-1730,-0.52968275
2023-10-21 21:30:54.139,12210,234866,209750,-2290,-0.70114075,-1758,-0.53825565
2023-10-21 21:30:54.139,12211,234894,209764,-2457,-0.752271975,-1789,-0.547747075
2023-10-21 21:30:54.170,12212,234868,209754,-2202,-0.67419735,-1827,-0.559381725
2023-10-21 21:30:54.170,12213,234865,209748,-2082,-0.63745635,-1865,-0.571016375
2023-10-21 21:30:54.170,12214,234861,209746,-2167,-0.663481225,-1896,-0.5805078
2023-10-21 21:30:54.202,12215,234845,209743,-2130,-0.65215275,-1924,-0.5890807
2023-10-21 21:30:54.202,12216,234832,209737,-2121,-0.649397175,-1952,-0.5976536
2023-10-21 21:30:54.202,12217,234807,209717,-2260,-0.6919555,-1982,-0.60683885
2023-10-21 21:30:54.202,12218,234806,209720,-2377,-0.727777975,-2011,-0.615717925
2023-10-21 21:30:54.202,12219,234781,209713,-2267,-0.694098725,-2037,-0.623678475
2023-10-21 21:30:54.202,12220,234761,209703,-2146,-0.65705155,-2064,-0.6319452
2023-10-21 21:30:54.233,12221,234738,209680,-2316,-0.7091013,-2092,-0.6405181
2023-10-21 21:30:54.233,12222,234737,209697,-2362,-0.72318535,-2117,-0.648172475
2023-10-21 21:30:54.233,12223,234716,209694,-2447,-0.749210225,-2136,-0.6539898
2023-10-21 21:30:54.233,12224,234739,209703,-2594,-0.79421795,-2149,-0.657970075
2023-10-21 21:30:54.233,12225,234721,209670,-2326,-0.71216305,-2162,-0.66195035
2023-10-21 21:30:54.233,12226,234700,209676,-2239,-0.685525825,-2177,-0.666542975
2023-10-21 21:30:54.264,12227,234714,209672,-2308,-0.7066519,-2192,-0.6711356
2023-10-21 21:30:54.264,12228,234701,209679,-2432,-0.7446176,-2209,-0.676340575
2023-10-21 21:30:54.264,12229,234691,209686,-2398,-0.73420765,-2222,-0.68032085
2023-10-21 21:30:54.264,12230,234703,209681,-2344,-0.7176742,-2228,-0.6821579
2023-10-21 21:30:54.264,12231,234724,209680,-2436,-0.7458423,-2228,-0.6821579
2023-10-21 21:30:54.264,12232,234713,209687,-2138,-0.65460215,-2224,-0.6809332
2023-10-21 21:30:54.264,12233,234737,209697,-1982,-0.60683885,-2216,-0.6784838
2023-10-21 21:30:54.296,12234,234762,209695,-2073,-0.634700775,-2213,-0.677565275
2023-10-21 21:30:54.296,12235,234754,209704,-2095,-0.641436625,-2216,-0.6784838
2023-10-21 21:30:54.296,12236,234758,209705,-1970,-0.60316475,-2220,-0.6797085
2023-10-21 21:30:54.296,12237,234805,209730,-2017,-0.617554975,-2224,-0.6809332
2023-10-21 21:30:54.296,12238,234832,209717,-2090,-0.63990575,-2230,-0.68277025
2023-10-21 21:30:54.296,12239,234833,209726,-1933,-0.591836275,-2236,-0.6846073
2023-10-21 21:30:54.296,12240,234848,209737,-1898,-0.58112015,-2247,-0.687975225
2023-10-21 21:30:54.327,12241,234879,209751,-1915,-0.586325125,-2265,-0.693486375
2023-10-21 21:30:54.327,12242,234874,209756,-1586,-0.48559355,-2282,-0.69869135
2023-10-21 21:30:54.327,12243,234923,209770,-1761,-0.539174175,-2296,-0.7029778
2023-10-21 21:30:54.327,12244,234935,209775,-1762,-0.53948035,-2315,-0.708795125
2023-10-21 21:30:54.327,12245,234948,209798,-1477,-0.452220475,-2337,-0.715530975
2023-10-21 21:30:54.357,12246,234988,209790,-1340,-0.4102745,-2356,-0.7213483
2023-10-21 21:30:54.357,12247,235031,209803,-1338,-0.40966215,-2367,-0.724716225
2023-10-21 21:30:54.357,12248,235051,209816,-1476,-0.4519143,-2374,-0.72685945
2023-10-21 21:30:54.357,12249,235033,209827,-1480,-0.453139,-2370,-0.72563475
2023-10-21 21:30:54.357,12250,235070,209837,-1436,-0.4396673,-2355,-0.721042125
2023-10-21 21:30:54.357,12251,235102,209851,-1215,-0.372002625,-2334,-0.71461245
2023-10-21 21:30:54.357,12252,235130,209847,-1360,-0.416398,-2306,-0.70603955
2023-10-21 21:30:54.388,12253,235141,209854,-1535,-0.469978625,-2274,-0.69624195
2023-10-21 21:30:54.388,12254,235163,209856,-2042,-0.62520935,-2239,-0.685525825
2023-10-21 21:30:54.388,12255,235174,209848,-2438,-0.74645465,-2202,-0.67419735
2023-10-21 21:30:54.388,12256,235185,209868,-2685,-0.822079875,-2163,-0.662256525
2023-10-21 21:30:54.388,12257,235209,209875,-2463,-0.754109025,-2125,-0.650621875
2023-10-21 21:30:54.388,12258,235233,209884,-2345,-0.717980375,-2090,-0.63990575
2023-10-21 21:30:54.420,12259,235252,209882,-1781,-0.545297675,-2047,-0.626740225
2023-10-21 21:30:54.420,12260,235278,209875,-978,-0.29943915,-2001,-0.612656175
2023-10-21 21:30:54.420,12261,235294,209877,-739,-0.226263325,-1955,-0.598572125
2023-10-21 21:30:54.420,12262,235300,209882,-913,-0.279537775,-1904,-0.5829572
2023-10-21 21:30:54.420,12263,235324,209902,-809,-0.247695575,-1846,-0.56519905
2023-10-21 21:30:54.420,12264,235328,209909,-944,-0.2890292,-1792,-0.5486656
2023-10-21 21:30:54.420,12265,235328,209918,-1280,-0.391904,-1744,-0.5339692
2023-10-21 21:30:54.420,12266,235355,209926,-1318,-0.40353865,-1697,-0.519578975
2023-10-21 21:30:54.455,12267,235373,209934,-1284,-0.3931287,-1644,-0.5033517
2023-10-21 21:30:54.455,12268,235380,209939,-1280,-0.391904,-1583,-0.484675025
2023-10-21 21:30:54.455,12269,235411,209946,-1115,-0.341385125,-1526,-0.46722305
2023-10-21 21:30:54.455,12270,235394,209948,-1138,-0.34842715,-1489,-0.455894575
2023-10-21 21:30:54.455,12271,235422,209963,-835,-0.255656125,-1482,-0.45375135
2023-10-21 21:30:54.455,12272,235431,209932,-1047,-0.320565225,-1510,-0.46232425
2023-10-21 21:30:54.455,12273,235447,209942,-1311,-0.401395425,-1571,-0.481000925
2023-10-21 21:30:54.482,12274,235459,209936,-1255,-0.384249625,-1656,-0.5070258
2023-10-21 21:30:54.482,12275,235454,209934,-1068,-0.3269949,-1750,-0.53580625
2023-10-21 21:30:54.482,12276,235479,209952,-974,-0.29821445,-1850,-0.56642375
2023-10-21 21:30:54.482,12277,235479,209954,-898,-0.27494515,-1868,-0.5719349
2023-10-21 21:30:54.482,12278,235521,209959,-639,-0.195645825,-1866,-0.57132255
2023-10-21 21:30:54.482,12279,235515,209959,-380,-0.1163465,-1685,-0.515904875
2023-10-21 21:30:54.517,12280,235528,209975,-575,-0.176050625,-1360,-0.416398
2023-10-21 21:30:54.517,12281,235537,209981,-152,-0.0465386,-1148,-0.3514889
2023-10-21 21:30:54.517,12282,235554,209994,5,0.001530875,-1160,-0.355163
2023-10-21 21:30:54.517,12283,235578,209980,133,0.040721275,-1284,-0.3931287
2023-10-21 21:30:54.517,12284,235585,210003,17,0.005204975,-1382,-0.42313385
2023-10-21 21:30:54.517,12285,235588,209987,-9,-0.002755575,-1379,-0.422215325
2023-10-21 21:30:54.517,12286,235599,209992,177,0.054192975,-1273,-0.389760775
2023-10-21 21:30:54.517,12287,235611,209998,105,0.032148375,-1163,-0.356081525
2023-10-21 21:30:54.545,12288,235631,209997,-46,-0.01408405,-1086,-0.33250605
2023-10-21 21:30:54.545,12289,235625,210004,204,0.0624597,-1050,-0.32148375
2023-10-21 21:30:54.545,12290,235666,210008,277,0.084810475,-1059,-0.324239325
2023-10-21 21:30:54.545,12291,235666,210012,186,0.05694855,-1099,-0.336486325
2023-10-21 21:30:54.545,12292,235689,210020,143,0.043783025,-1144,-0.3502642
2023-10-21 21:30:54.545,12293,235709,210018,126,0.03857805,-1169,-0.357918575
2023-10-21 21:30:54.576,12294,235707,210017,80,0.024494,-1162,-0.35577535
2023-10-21 21:30:54.576,12295,235726,210035,133,0.040721275,-1121,-0.343222175
2023-10-21 21:30:54.576,12296,235746,210012,68,0.0208199,-1056,-0.3233208
2023-10-21 21:30:54.576,12297,235753,210026,-125,-0.038271875,-982,-0.30066385
2023-10-21 21:30:54.576,12298,235753,210035,112,0.0342916,-905,-0.277088375
2023-10-21 21:30:54.608,12299,235774,210041,16,0.0048988,-826,-0.25290055
2023-10-21 21:30:54.608,12300,235789,210031,-45,-0.013777875,-740,-0.2265695
2023-10-21 21:30:54.608,12301,235775,210031,-63,-0.019289025,-641,-0.196258175
2023-10-21 21:30:54.608,12302,235797,210000,-19,-0.005817325,-519,-0.158904825
2023-10-21 21:30:54.608,12303,235769,210017,96,0.0293928,-417,-0.127674975
2023-10-21 21:30:54.608,12304,235737,209988,-105,-0.032148375,-302,-0.09246485
2023-10-21 21:30:54.640,12305,235703,209971,-254,-0.07776845,-198,-0.06062265
2023-10-21 21:30:54.640,12306,235640,209947,-282,-0.08634135,-108,-0.0330669
2023-10-21 21:30:54.640,12307,235577,209913,-123,-0.037659525,-35,-0.010716125
2023-10-21 21:30:54.640,12308,235500,209870,-36,-0.0110223,25,0.007654375
2023-10-21 21:30:54.640,12309,235396,209839,146,0.04470155,70,0.02143225
2023-10-21 21:30:54.640,12310,235326,209790,107,0.032760725,101,0.030923675
2023-10-21 21:30:54.671,12311,235235,209762,76,0.0232693,120,0.036741
2023-10-21 21:30:54.671,12312,235175,209749,168,0.0514374,134,0.04102745
2023-10-21 21:30:54.671,12313,235080,209706,160,0.048988,139,0.042558325
2023-10-21 21:30:54.671,12314,235012,209692,15,0.004592625,128,0.0391904
2023-10-21 21:30:54.671,12315,234954,209663,334,0.10226245,112,0.0342916
2023-10-21 21:30:54.671,12316,234878,209628,428,0.1310429,102,0.03122985
2023-10-21 21:30:54.671,12317,234843,209606,471,0.144208425,93,0.028474275
2023-10-21 21:30:54.671,12318,234799,209573,728,0.2228954,81,0.024800175
2023-10-21 21:30:54.703,12319,234738,209567,582,0.17819385,68,0.0208199
2023-10-21 21:30:54.703,12320,234730,209547,604,0.1849297,53,0.016227275
2023-10-21 21:30:54.703,12321,234666,209541,643,0.196870525,32,0.0097976
2023-10-21 21:30:54.703,12322,234658,209523,709,0.217078075,3,0.000918525
2023-10-21 21:30:54.703,12323,234621,209503,722,0.22105835,-28,-0.0085729
2023-10-21 21:30:54.703,12324,234618,209503,935,0.286273625,-51,-0.015614925
2023-10-21 21:30:54.703,12325,234623,209500,840,0.257187,-59,-0.018064325
2023-10-21 21:30:54.733,12326,234629,209505,821,0.251369675,-60,-0.0183705
2023-10-21 21:30:54.733,12327,234630,209481,909,0.278313075,-60,-0.0183705
2023-10-21 21:30:54.733,12328,234635,209492,963,0.294846525,-57,-0.017451975
2023-10-21 21:30:54.733,12329,234654,209493,937,0.286885975,-46,-0.01408405
2023-10-21 21:30:54.733,12330,234635,209501,894,0.27372045,-29,-0.008879075
2023-10-21 21:30:54.764,12331,234678,209501,1083,0.331587525,-11,-0.003367925
2023-10-21 21:30:54.764,12332,234705,209501,703,0.215241025,12,0.0036741
2023-10-21 21:30:54.764,12333,234719,209509,561,0.171764175,48,0.0146964
2023-10-21 21:30:54.795,12334,234716,209516,789,0.241572075,95,0.029086625
2023-10-21 21:30:54.795,12335,234733,209508,871,0.266678425,153,0.046844775
2023-10-21 21:30:54.795,12336,234749,209512,603,0.184623525,216,0.0661338
2023-10-21 21:30:54.795,12337,234765,209514,733,0.224426275,280,0.085729
2023-10-21 21:30:54.795,12338,234792,209518,576,0.1763568,344,0.1053242
2023-10-21 21:30:54.795,12339,234789,209519,444,0.1359417,404,0.1236947
2023-10-21 21:30:54.826,12340,234846,209533,712,0.2179966,456,0.1396158
2023-10-21 21:30:54.826,12341,234841,209542,364,0.1114477,506,0.15492455
2023-10-21 21:30:54.826,12342,234859,209549,263,0.080524025,561,0.171764175
2023-10-21 21:30:54.826,12343,234889,209547,290,0.08879075,617,0.188909975
2023-10-21 21:30:54.826,12344,234907,209571,656,0.2008508,676,0.2069743
2023-10-21 21:30:54.826,12345,234944,209572,521,0.159517175,732,0.2241201
2023-10-21 21:30:54.857,12346,234967,209580,331,0.101343925,777,0.237897975
2023-10-21 21:30:54.857,12347,234998,209592,259,0.079299325,808,0.2473894
2023-10-21 21:30:54.857,12348,235024,209588,314,0.09613895,832,0.2547376
2023-10-21 21:30:54.857,12349,235057,209613,571,0.174825925,847,0.259330225
2023-10-21 21:30:54.857,12350,235089,209625,367,0.112366225,853,0.261167275
2023-10-21 21:30:54.857,12351,235115,209634,191,0.058479425,859,0.263004325
2023-10-21 21:30:54.857,12352,235143,209635,36,0.0110223,863,0.264229025
2023-10-21 21:30:54.889,12353,235187,209659,-128,-0.0391904,858,0.26269815
2023-10-21 21:30:54.889,12354,235208,209661,391,0.119714425,843,0.258105525
2023-10-21 21:30:54.889,12355,235213,209666,370,0.11328475,817,0.250144975
2023-10-21 21:30:54.889,12356,235232,209693,129,0.039496575,783,0.239735025
2023-10-21 21:30:54.889,12357,235270,209684,329,0.100731575,751,0.229937425
2023-10-21 21:30:54.889,12358,235295,209694,20,0.0061235,715,0.218915125
2023-10-21 21:30:54.889,12359,235289,209700,0,0,668,0.2045249
2023-10-21 21:30:54.920,12360,235299,209691,356,0.1089983,622,0.19044085
2023-10-21 21:30:54.920,12361,235294,209669,273,0.083585775,588,0.1800309
2023-10-21 21:30:54.920,12362,235300,209680,17,0.005204975,558,0.17084565
2023-10-21 21:30:54.920,12363,235296,209673,81,0.024800175,525,0.160741875
2023-10-21 21:30:54.920,12364,235264,209667,-265,-0.081136375,492,0.1506381
2023-10-21 21:30:54.951,12365,235271,209657,-301,-0.092158675,466,0.14267755
2023-10-21 21:30:54.951,12366,235235,209656,-467,-0.142983725,449,0.137472575
2023-10-21 21:30:54.951,12367,235213,209630,-566,-0.17329505,433,0.132573775
2023-10-21 21:30:54.951,12368,235205,209630,-758,-0.23208065,406,0.12430705
2023-10-21 21:30:54.951,12369,235184,209622,-1018,-0.31168615,371,0.113590925
2023-10-21 21:30:54.951,12370,235165,209604,-745,-0.228100375,341,0.104405675
2023-10-21 21:30:54.951,12371,235150,209602,-834,-0.25534995,324,0.0992007
2023-10-21 21:30:54.983,12372,235121,209594,-842,-0.25779935,309,0.094608075
2023-10-21 21:30:54.983,12373,235130,209586,-1032,-0.3159726,288,0.0881784
2023-10-21 21:30:54.983,12374,235093,209551,-1267,-0.387923725,268,0.0820549
2023-10-21 21:30:54.983,12375,235098,209566,-1252,-0.3833311,248,0.0759314
2023-10-21 21:30:54.983,12376,235073,209566,-1133,-0.346896275,228,0.0698079
2023-10-21 21:30:54.983,12377,235070,209569,-1408,-0.4310944,209,0.063990575
2023-10-21 21:30:55.014,12378,235071,209565,-1377,-0.421602975,192,0.0587856
2023-10-21 21:30:55.014,12379,235068,209565,-1535,-0.469978625,178,0.05449915
2023-10-21 21:30:55.014,12380,235066,209542,-1456,-0.4457908,167,0.051131225
2023-10-21 21:30:55.014,12381,235060,209556,-1428,-0.4372179,155,0.047457125
2023-10-21 21:30:55.014,12382,235070,209562,-1719,-0.526314825,128,0.0391904
2023-10-21 21:30:55.014,12383,235079,209555,-1819,-0.556932325,84,0.0257187
2023-10-21 21:30:55.014,12384,235086,209557,-1754,-0.53703095,26,0.00796055
2023-10-21 21:30:55.014,12385,235091,209559,-1768,-0.5413174,-49,-0.015002575
2023-10-21 21:30:55.046,12386,235114,209564,-1585,-0.485287375,-139,-0.042558325
2023-10-21 21:30:55.046,12387,235113,209557,-1605,-0.491410875,-233,-0.071338775
2023-10-21 21:30:55.046,12388,235107,209561,-1711,-0.523865425,-331,-0.101343925
2023-10-21 21:30:55.046,12389,235134,209562,-1933,-0.591836275,-430,-0.13165525
2023-10-21 21:30:55.046,12390,235172,209571,-2052,-0.6282711,-526,-0.16104805
2023-10-21 21:30:55.046,12391,235173,209578,-2087,-0.638987225,-626,-0.19166555
2023-10-21 21:30:55.046,12392,235183,209582,-2278,-0.69746665,-726,-0.22228305
2023-10-21 21:30:55.081,12393,235189,209573,-2040,-0.624597,-823,-0.251982025
2023-10-21 21:30:55.081,12394,235199,209585,-1829,-0.559994075,-916,-0.2804563
2023-10-21 21:30:55.081,12395,235216,209588,-2167,-0.663481225,-1001,-0.306481175
2023-10-21 21:30:55.081,12396,235247,209611,-2092,-0.6405181,-1075,-0.329138125
2023-10-21 21:30:55.081,12397,235269,209607,-1938,-0.59336715,-1133,-0.346896275
2023-10-21 21:30:55.081,12398,235291,209608,-2206,-0.67542205,-1187,-0.363429725
2023-10-21 21:30:55.110,12399,235303,209611,-2113,-0.646947775,-1250,-0.38271875
2023-10-21 21:30:55.110,12400,235329,209616,-2021,-0.618779675,-1324,-0.4053757
2023-10-21 21:30:55.110,12401,235337,209627,-1963,-0.601021525,-1398,-0.42803265
2023-10-21 21:30:55.110,12402,235349,209645,-1883,-0.576527525,-1462,-0.44762785
2023-10-21 21:30:55.110,12403,235376,209642,-1893,-0.579589275,-1515,-0.463855125
2023-10-21 21:30:55.110,12404,235386,209643,-1866,-0.57132255,-1561,-0.477939175
2023-10-21 21:30:55.110,12405,235416,209661,-1937,-0.593060975,-1601,-0.490186175
2023-10-21 21:30:55.110,12406,235416,209644,-2076,-0.6356193,-1637,-0.501208475
2023-10-21 21:30:55.142,12407,235434,209662,-1975,-0.604695625,-1675,-0.512843125
2023-10-21 21:30:55.142,12408,235446,209654,-2100,-0.6429675,-1719,-0.526314825
2023-10-21 21:30:55.142,12409,235478,209677,-2025,-0.620004375,-1774,-0.54315445
2023-10-21 21:30:55.142,12410,235486,209675,-1861,-0.569791675,-1827,-0.559381725
2023-10-21 21:30:55.142,12411,235501,209679,-1841,-0.563668175,-1870,-0.57254725
2023-10-21 21:30:55.142,12412,235520,209683,-1903,-0.582651025,-1906,-0.58356955
2023-10-21 21:30:55.170,12413,235543,209687,-1953,-0.597959775,-1936,-0.5927548
2023-10-21 21:30:55.170,12414,235544,209682,-1838,-0.56274965,-1961,-0.600409175
2023-10-21 21:30:55.170,12415,235563,209697,-2088,-0.6392934,-1988,-0.6086759
2023-10-21 21:30:55.170,12416,235580,209703,-2686,-0.82238605,-2020,-0.6184735
2023-10-21 21:30:55.170,12417,235585,209716,-3509,-1.074368075,-2049,-0.627352575
2023-10-21 21:30:55.202,12418,235615,209716,-3576,-1.0948818,-2072,-0.6343946
2023-10-21 21:30:55.202,12419,235627,209725,-3385,-1.036402375,-2079,-0.636537825
2023-10-21 21:30:55.202,12420,235629,209716,-2932,-0.8977051,-2066,-0.63255755
2023-10-21 21:30:55.202,12421,235656,209729,-2172,-0.6650121,-2041,-0.624903175
2023-10-21 21:30:55.202,12422,235655,209733,-1170,-0.35822475,-2017,-0.617554975
2023-10-21 21:30:55.202,12423,235650,209737,-1150,-0.35210125,-1997,-0.611431475
2023-10-21 21:30:55.235,12424,235676,209743,-1254,-0.38394345,-1988,-0.6086759
2023-10-21 21:30:55.235,12425,235694,209724,-1297,-0.397108975,-1992,-0.6099006
2023-10-21 21:30:55.235,12426,235698,209733,-1269,-0.388536075,-1998,-0.61173765
2023-10-21 21:30:55.235,12427,235716,209737,-1267,-0.387923725,-1994,-0.61051295
2023-10-21 21:30:55.235,12428,235737,209743,-1173,-0.359143275,-1980,-0.6062265
2023-10-21 21:30:55.235,12429,235737,209735,-1251,-0.383024925,-1962,-0.60071535
2023-10-21 21:30:55.264,12430,235763,209752,-985,-0.301582375,-1948,-0.5964289
2023-10-21 21:30:55.264,12431,235751,209737,-933,-0.285661275,-1942,-0.59459185
2023-10-21 21:30:55.264,12432,235775,209744,-957,-0.293009475,-1951,-0.597347425
2023-10-21 21:30:55.264,12433,235768,209752,-1198,-0.36679765,-1988,-0.6086759
2023-10-21 21:30:55.264,12434,235775,209737,-901,-0.275863675,-2064,-0.6319452
2023-10-21 21:30:55.295,12435,235797,209751,-723,-0.221364525,-2170,-0.66439975
2023-10-21 21:30:55.295,12436,235791,209743,-776,-0.2375918,-2565,-0.785338875
2023-10-21 21:30:55.295,12437,235782,209741,-567,-0.173601225,-2786,-0.85300355
2023-10-21 21:30:55.295,12438,235791,209743,-672,-0.2057496,-2692,-0.8242231
2023-10-21 21:30:55.295,12439,235824,209746,-588,-0.1800309,-2455,-0.751659625
2023-10-21 21:30:55.295,12440,235824,209744,-438,-0.13410465,-2188,-0.6699109
2023-10-21 21:30:55.328,12441,235830,209736,-285,-0.087259875,-1833,-0.561218775
2023-10-21 21:30:55.328,12442,235835,209736,-638,-0.19533965,-1492,-0.4568131
2023-10-21 21:30:55.328,12443,235848,209733,-629,-0.192584075,-1298,-0.39741515
2023-10-21 21:30:55.328,12444,235864,209739,-587,-0.179724725,-1284,-0.3931287
2023-10-21 21:30:55.328,12445,235871,209740,-648,-0.1984014,-1392,-0.4261956
2023-10-21 21:30:55.328,12446,235893,209735,-656,-0.2008508,-1488,-0.4555884
2023-10-21 21:30:55.360,12447,235892,209740,-460,-0.1408405,-1446,-0.44272905
2023-10-21 21:30:55.360,12448,235911,209747,-556,-0.1702333,-1326,-0.40598805
2023-10-21 21:30:55.360,12449,235944,209737,-806,-0.24677705,-1312,-0.4017016
2023-10-21 21:30:55.360,12450,235947,209738,-800,-0.24494,-1178,-0.36067415
2023-10-21 21:30:55.360,12451,235955,209748,-753,-0.230549775,-1099,-0.336486325
2023-10-21 21:30:55.360,12452,235991,209740,-757,-0.231774475,-1061,-0.324851675
2023-10-21 21:30:55.360,12453,236006,209742,-643,-0.196870525,-1049,-0.321177575
2023-10-21 21:30:55.392,12454,236014,209765,-869,-0.266066075,-1039,-0.318115825
2023-10-21 21:30:55.392,12455,236022,209761,-779,-0.238510325,-1011,-0.309542925
2023-10-21 21:30:55.392,12456,236041,209770,-827,-0.253206725,-952,-0.2914786
2023-10-21 21:30:55.392,12457,236061,209761,-813,-0.248920275,-867,-0.265453725
2023-10-21 21:30:55.392,12458,236082,209781,-849,-0.259942575,-780,-0.2388165
2023-10-21 21:30:55.392,12459,236073,209763,-718,-0.21983365,-720,-0.220446
2023-10-21 21:30:55.392,12460,236093,209782,-887,-0.271577225,-688,-0.2106484
2023-10-21 21:30:55.422,12461,236092,209766,-1157,-0.354244475,-665,-0.203606375
2023-10-21 21:30:55.422,12462,236080,209750,-796,-0.2437153,-641,-0.196258175
2023-10-21 21:30:55.422,12463,236060,209743,-785,-0.240347375,-614,-0.18799145
2023-10-21 21:30:55.422,12464,236016,209699,-889,-0.272189575,-581,-0.177887675
2023-10-21 21:30:55.422,12465,235932,209665,-972,-0.2976021,-556,-0.1702333
2023-10-21 21:30:55.422,12466,235809,209616,-748,-0.2290189,-551,-0.168702425
2023-10-21 21:30:55.456,12467,235715,209552,-321,-0.098282175,-566,-0.17329505
2023-10-21 21:30:55.456,12468,235590,209504,-373,-0.114203275,-596,-0.1824803
2023-10-21 21:30:55.456,12469,235471,209454,-118,-0.03612865,-629,-0.192584075
2023-10-21 21:30:55.456,12470,235352,209400,-85,-0.026024875,-653,-0.199932275
2023-10-21 21:30:55.456,12471,235256,209351,-282,-0.08634135,-670,-0.20513725
2023-10-21 21:30:55.456,12472,235169,209324,-557,-0.170539475,-686,-0.21003605
2023-10-21 21:30:55.456,12473,235052,209285,-383,-0.117265025,-703,-0.215241025
2023-10-21 21:30:55.483,12474,234968,209256,-376,-0.1151218,-721,-0.220752175
2023-10-21 21:30:55.483,12475,234902,209222,-262,-0.08021785,-744,-0.2277942
2023-10-21 21:30:55.483,12476,234836,209185,-196,-0.0600103,-765,-0.234223875
2023-10-21 21:30:55.483,12477,234785,209185,-375,-0.114815625,-784,-0.2400412
2023-10-21 21:30:55.483,12478,234749,209162,-297,-0.090933975,-802,-0.24555235
2023-10-21 21:30:55.483,12479,234683,209136,-157,-0.048069475,-818,-0.25045115
2023-10-21 21:30:55.516,12480,234661,209139,-325,-0.099506875,-828,-0.2535129
2023-10-21 21:30:55.516,12481,234628,209115,-108,-0.0330669,-839,-0.256880825
2023-10-21 21:30:55.516,12482,234627,209123,-105,-0.032148375,-851,-0.260554925
2023-10-21 21:30:55.516,12483,234616,209118,-438,-0.13410465,-856,-0.2620858
2023-10-21 21:30:55.516,12484,234584,209126,-378,-0.11573415,-845,-0.258717875
2023-10-21 21:30:55.548,12485,234595,209113,-229,-0.070114075,-818,-0.25045115
2023-10-21 21:30:55.548,12486,234610,209114,-227,-0.069501725,-774,-0.23697945
2023-10-21 21:30:55.548,12487,234597,209138,-184,-0.0563362,-717,-0.219527475
2023-10-21 21:30:55.548,12488,234597,209131,-214,-0.06552145,-654,-0.20023845
2023-10-21 21:30:55.548,12489,234620,209136,-340,-0.1040995,-592,-0.1812556
2023-10-21 21:30:55.548,12490,234639,209132,-289,-0.088484575,-539,-0.165028325
2023-10-21 21:30:55.548,12491,234638,209145,-565,-0.172988875,-494,-0.15125045
2023-10-21 21:30:55.581,12492,234660,209166,-194,-0.05939795,-449,-0.137472575
2023-10-21 21:30:55.581,12493,234690,209150,-419,-0.128287325,-398,-0.12185765
2023-10-21 21:30:55.581,12494,234695,209156,-300,-0.0918525,-352,-0.1077736
2023-10-21 21:30:55.581,12495,234717,209164,-764,-0.2339177,-317,-0.097057475
2023-10-21 21:30:55.581,12496,234733,209179,-789,-0.241572075,-293,-0.089709275
2023-10-21 21:30:55.581,12497,234771,209201,-410,-0.12553175,-283,-0.086647525
2023-10-21 21:30:55.608,12498,234781,209200,-155,-0.047457125,-282,-0.08634135
2023-10-21 21:30:55.608,12499,234813,209203,-471,-0.144208425,-284,-0.0869537
2023-10-21 21:30:55.608,12500,234813,209199,-436,-0.1334923,-285,-0.087259875
2023-10-21 21:30:55.608,12501,234836,209221,-247,-0.075625225,-285,-0.087259875
2023-10-21 21:30:55.608,12502,234861,209204,-408,-0.1249194,-278,-0.08511665
2023-10-21 21:30:55.642,12503,234848,209220,-322,-0.09858835,-268,-0.0820549
2023-10-21 21:30:55.642,12504,234880,209228,-338,-0.10348715,-257,-0.078686975
2023-10-21 21:30:55.642,12505,234888,209223,-365,-0.111753875,-247,-0.075625225
2023-10-21 21:30:55.642,12506,234883,209221,-571,-0.174825925,-244,-0.0747067
2023-10-21 21:30:55.642,12507,234909,209244,-649,-0.198707575,-250,-0.07654375
2023-10-21 21:30:55.642,12508,234934,209235,-553,-0.169314775,-263,-0.080524025
2023-10-21 21:30:55.673,12509,234964,209238,-411,-0.125837925,-277,-0.084810475
2023-10-21 21:30:55.673,12510,234967,209221,-624,-0.1910532,-290,-0.08879075
2023-10-21 21:30:55.673,12511,234986,209242,-729,-0.223201575,-301,-0.092158675
2023-10-21 21:30:55.673,12512,234991,209240,-474,-0.14512695,-320,-0.097976
2023-10-21 21:30:55.673,12513,235045,209253,-227,-0.069501725,-350,-0.10716125
2023-10-21 21:30:55.673,12514,235027,209261,-393,-0.120326775,-378,-0.11573415
2023-10-21 21:30:55.706,12515,235079,209267,-407,-0.124613225,-396,-0.1212453
2023-10-21 21:30:55.706,12516,235098,209282,-329,-0.100731575,-412,-0.1261441
2023-10-21 21:30:55.706,12517,235113,209282,-273,-0.083585775,-428,-0.1310429
2023-10-21 21:30:55.706,12518,235122,209286,-94,-0.02878045,-435,-0.133186125
2023-10-21 21:30:55.706,12519,235139,209267,-89,-0.027249575,-435,-0.133186125
2023-10-21 21:30:55.706,12520,235144,209284,-385,-0.117877375,-431,-0.131961425
2023-10-21 21:30:55.706,12521,235166,209290,-52,-0.0159211,-426,-0.13043055
2023-10-21 21:30:55.733,12522,235178,209276,232,0.0710326,-422,-0.12920585
2023-10-21 21:30:55.733,12523,235188,209287,201,0.061541175,-417,-0.127674975
2023-10-21 21:30:55.733,12524,235176,209275,-51,-0.015614925,-412,-0.1261441
2023-10-21 21:30:55.733,12525,235175,209291,108,0.0330669,-412,-0.1261441
2023-10-21 21:30:55.733,12526,235145,209266,501,0.153393675,-420,-0.1285935
2023-10-21 21:30:55.733,12527,235141,209250,549,0.168090075,-430,-0.13165525
2023-10-21 21:30:55.733,12528,235138,209243,335,0.102568625,-446,-0.13655405
2023-10-21 21:30:55.765,12529,235117,209253,93,0.028474275,-464,-0.1420652
2023-10-21 21:30:55.765,12530,235105,209237,-76,-0.0232693,-479,-0.146657825
2023-10-21 21:30:55.765,12531,235077,209228,457,0.139921975,-490,-0.15002575
2023-10-21 21:30:55.765,12532,235072,209207,629,0.192584075,-498,-0.15247515
2023-10-21 21:30:55.765,12533,235068,209209,591,0.180949425,-496,-0.1518628
2023-10-21 21:30:55.765,12534,235047,209221,736,0.2253448,-479,-0.146657825
2023-10-21 21:30:55.798,12535,235022,209197,898,0.27494515,-447,-0.136860225
2023-10-21 21:30:55.798,12536,235024,209201,722,0.22105835,-413,-0.126450275
2023-10-21 21:30:55.798,12537,235012,209192,572,0.1751321,-387,-0.118489725
2023-10-21 21:30:55.798,12538,235008,209191,867,0.265453725,-353,-0.108079775
2023-10-21 21:30:55.798,12539,235016,209187,775,0.237285625,-298,-0.09124015
2023-10-21 21:30:55.798,12540,234998,209203,483,0.147882525,-235,-0.071951125
2023-10-21 21:30:55.798,12541,234996,209186,644,0.1971767,-183,-0.056030025
2023-10-21 21:30:55.826,12542,234983,209199,563,0.172376525,-135,-0.041333625
2023-10-21 21:30:55.826,12543,234996,209185,549,0.168090075,-78,-0.02388165
2023-10-21 21:30:55.826,12544,235004,209181,575,0.176050625,-13,-0.003980275
2023-10-21 21:30:55.826,12545,235004,209188,470,0.14390225,47,0.014390225
2023-10-21 21:30:55.826,12546,235015,209185,269,0.082361075,93,0.028474275
2023-10-21 21:30:55.826,12547,235020,209177,358,0.10961065,129,0.039496575
2023-10-21 21:30:55.859,12548,235030,209176,161,0.049294175,172,0.0526621
2023-10-21 21:30:55.859,12549,235066,209192,-114,-0.03490395,223,0.068277025
2023-10-21 21:30:55.859,12550,235065,209208,9,0.002755575,265,0.081136375
2023-10-21 21:30:55.859,12551,235087,209197,-144,-0.0440892,306,0.09368955
2023-10-21 21:30:55.859,12552,235076,209201,-198,-0.06062265,362,0.11083535
2023-10-21 21:30:55.859,12553,235117,209192,-349,-0.106855075,423,0.129512025
2023-10-21 21:30:55.859,12554,235117,209201,-346,-0.10593655,475,0.145433125
2023-10-21 21:30:55.859,12555,235140,209205,-584,-0.1788062,517,0.158292475
2023-10-21 21:30:55.859,12556,235163,209213,-419,-0.128287325,552,0.1690086
2023-10-21 21:30:55.891,12557,235166,209198,-510,-0.15614925,585,0.179112375
2023-10-21 21:30:55.891,12558,235188,209222,-436,-0.1334923,618,0.18921615
2023-10-21 21:30:55.891,12559,235202,209221,-592,-0.1812556,645,0.197482875
2023-10-21 21:30:55.891,12560,235226,209225,-568,-0.1739074,663,0.202994025
2023-10-21 21:30:55.891,12561,235249,209222,-755,-0.231162125,676,0.2069743
2023-10-21 21:30:55.891,12562,235289,209245,-772,-0.2363671,676,0.2069743
2023-10-21 21:30:55.891,12563,235283,209250,-882,-0.27004635,652,0.1996261
2023-10-21 21:30:55.923,12564,235300,209251,-885,-0.270964875,612,0.1873791
2023-10-21 21:30:55.923,12565,235327,209261,-884,-0.2706587,560,0.171458
2023-10-21 21:30:55.923,12566,235357,209272,-773,-0.236673275,494,0.15125045
2023-10-21 21:30:55.923,12567,235371,209278,-808,-0.2473894,426,0.13043055
2023-10-21 21:30:55.923,12568,235404,209280,-1102,-0.33740485,364,0.1114477
2023-10-21 21:30:55.952,12569,235431,209295,-877,-0.268515475,299,0.091546325
2023-10-21 21:30:55.952,12570,235452,209300,-1022,-0.31291085,226,0.06919555
2023-10-21 21:30:55.952,12571,235473,209302,-1282,-0.39251635,142,0.04347685
2023-10-21 21:30:55.952,12572,235473,209307,-1441,-0.441198175,49,0.015002575
2023-10-21 21:30:55.985,12573,235481,209301,-1076,-0.3294443,-42,-0.01285935
2023-10-21 21:30:55.985,12574,235512,209311,-1202,-0.36802235,-124,-0.0379657
2023-10-21 21:30:55.985,12575,235529,209319,-1148,-0.3514889,-200,-0.061235
2023-10-21 21:30:55.985,12576,235542,209321,-1293,-0.395884275,-271,-0.082973425
2023-10-21 21:30:55.985,12577,235568,209329,-1613,-0.493860275,-334,-0.10226245
2023-10-21 21:30:55.985,12578,235581,209330,-1940,-0.5939795,-395,-0.120939125
2023-10-21 21:30:56.017,12579,235605,209347,-2669,-0.817181075,-454,-0.13900345
2023-10-21 21:30:56.017,12580,235606,209345,-3215,-0.984352625,-510,-0.15614925
2023-10-21 21:30:56.017,12581,235605,209349,-3148,-0.9638389,-564,-0.1726827
2023-10-21 21:30:56.017,12582,235637,209356,-3133,-0.959246275,-614,-0.18799145
2023-10-21 21:30:56.017,12583,235647,209356,-2523,-0.772479525,-657,-0.201156975
2023-10-21 21:30:56.017,12584,235662,209358,-1513,-0.463242775,-695,-0.212791625
2023-10-21 21:30:56.046,12585,235680,209362,-1193,-0.365266775,-735,-0.225038625
2023-10-21 21:30:56.046,12586,235681,209372,-1313,-0.402007775,-773,-0.236673275
2023-10-21 21:30:56.046,12587,235700,209387,-1430,-0.43783025,-811,-0.248307925
2023-10-21 21:30:56.046,12588,235703,209377,-1587,-0.485899725,-858,-0.26269815
2023-10-21 21:30:56.046,12589,235713,209377,-1852,-0.5670361,-913,-0.279537775
2023-10-21 21:30:56.046,12590,235723,209379,-2016,-0.6172488,-964,-0.2951527
2023-10-21 21:30:56.046,12591,235721,209377,-2127,-0.651234225,-1007,-0.308318225
2023-10-21 21:30:56.079,12592,235734,209384,-2098,-0.64235515,-1042,-0.31903435
2023-10-21 21:30:56.079,12593,235753,209400,-2116,-0.6478663,-1075,-0.329138125
2023-10-21 21:30:56.079,12594,235755,209379,-2262,-0.69256785,-1120,-0.342916
2023-10-21 21:30:56.079,12595,235771,209379,-2210,-0.67664675,-1187,-0.363429725
2023-10-21 21:30:56.079,12596,235770,209394,-1990,-0.60928825,-1289,-0.394659575
2023-10-21 21:30:56.079,12597,235774,209392,-1949,-0.596735075,-1435,-0.439361125
2023-10-21 21:30:56.079,12598,235787,209395,-2085,-0.638374875,-2174,-0.66562445
2023-10-21 21:30:56.107,12599,235777,209387,-2228,-0.6821579,-2607,-0.798198225
2023-10-21 21:30:56.107,12600,235806,209404,-2225,-0.681239375,-2670,-0.81748725
2023-10-21 21:30:56.107,12601,235810,209401,-2140,-0.6552145,-2394,-0.73298295
2023-10-21 21:30:56.107,12602,235817,209399,-2136,-0.6539898,-2055,-0.629189625
2023-10-21 21:30:56.107,12603,235846,209405,-2245,-0.687362875,-1827,-0.559381725
2023-10-21 21:30:56.140,12604,235840,209416,-2205,-0.675115875,-1680,-0.514374
2023-10-21 21:30:56.140,12605,235873,209432,-2132,-0.6527651,-1611,-0.493247925
2023-10-21 21:30:56.140,12606,235867,209432,-2297,-0.703283975,-1676,-0.5131493
2023-10-21 21:30:56.140,12607,235877,209429,-2301,-0.704508675,-1853,-0.567342275
2023-10-21 21:30:56.140,12608,235899,209447,-2370,-0.72563475,-2040,-0.624597
2023-10-21 21:30:56.140,12609,235915,209445,-2414,-0.73910645,-2121,-0.649397175
2023-10-21 21:30:56.140,12610,235926,209450,-2582,-0.79054385,-2046,-0.62643405
2023-10-21 21:30:56.174,12611,235956,209456,-2356,-0.7213483,-1850,-0.56642375
2023-10-21 21:30:56.174,12612,235969,209449,-2456,-0.7519658,-1811,-0.554482925
2023-10-21 21:30:56.174,12613,235976,209458,-2609,-0.798810575,-1817,-0.556319975
2023-10-21 21:30:56.174,12614,235994,209467,-2291,-0.701446925,-1862,-0.57009785
2023-10-21 21:30:56.174,12615,236031,209485,-2352,-0.7201236,-1937,-0.593060975
2023-10-21 21:30:56.174,12616,236019,209471,-2361,-0.722879175,-2027,-0.620616725
2023-10-21 21:30:56.202,12617,236039,209474,-2380,-0.7286965,-2102,-0.64357985
2023-10-21 21:30:56.202,12618,236071,209469,-2311,-0.707570425,-2143,-0.656133025
2023-10-21 21:30:56.202,12619,236063,209510,-2611,-0.799422925,-2150,-0.65827625
2023-10-21 21:30:56.202,12620,236093,209500,-2570,-0.78686975,-2144,-0.6564392
2023-10-21 21:30:56.234,12621,236109,209500,-2535,-0.776153625,-2140,-0.6552145
2023-10-21 21:30:56.234,12622,236117,209514,-2909,-0.890663075,-2143,-0.656133025
2023-10-21 21:30:56.234,12623,236121,209509,-2766,-0.84688005,-2155,-0.659807125
2023-10-21 21:30:56.234,12624,236126,209515,-2627,-0.804321725,-2174,-0.66562445
2023-10-21 21:30:56.234,12625,236092,209508,-2761,-0.845349175,-2197,-0.672666475
2023-10-21 21:30:56.234,12626,236061,209477,-2798,-0.85667765,-2218,-0.67909615
2023-10-21 21:30:56.234,12627,236017,209459,-2838,-0.86892465,-2239,-0.685525825
2023-10-21 21:30:56.268,12628,235928,209418,-2641,-0.808608175,-2264,-0.6931802
2023-10-21 21:30:56.268,12629,235861,209384,-2767,-0.847186225,-2298,-0.70359015
2023-10-21 21:30:56.268,12630,235743,209340,-2678,-0.81993665,-2336,-0.7152248
2023-10-21 21:30:56.268,12631,235621,209272,-2650,-0.81136375,-2365,-0.724103875
2023-10-21 21:30:56.268,12632,235525,209246,-2675,-0.819018125,-2380,-0.7286965
2023-10-21 21:30:56.268,12633,235427,209208,-2757,-0.844124475,-2390,-0.73175825
2023-10-21 21:30:56.296,12634,235322,209156,-2834,-0.86769995,-2399,-0.734513825
2023-10-21 21:30:56.296,12635,235236,209119,-2755,-0.843512125,-2407,-0.736963225
2023-10-21 21:30:56.296,12636,235161,209111,-2504,-0.7666622,-2422,-0.74155585
2023-10-21 21:30:56.296,12637,235071,209069,-2402,-0.73543235,-2436,-0.7458423
2023-10-21 21:30:56.296,12638,235017,209030,-2397,-0.733901475,-2448,-0.7495164
2023-10-21 21:30:56.296,12639,234937,209014,-2192,-0.6711356,-2467,-0.755333725
2023-10-21 21:30:56.296,12640,234885,209003,-2094,-0.64113045,-2489,-0.762069575
2023-10-21 21:30:56.296,12641,234848,208976,-2177,-0.666542975,-2510,-0.76849925
2023-10-21 21:30:56.329,12642,234829,208956,-2331,-0.713693925,-2537,-0.776765975
2023-10-21 21:30:56.329,12643,234771,208967,-2300,-0.7042025,-2572,-0.7874821
2023-10-21 21:30:56.329,12644,234771,208949,-2194,-0.67174795,-2611,-0.799422925
2023-10-21 21:30:56.329,12645,234761,208955,-2073,-0.634700775,-2648,-0.8107514
2023-10-21 21:30:56.329,12646,234750,208926,-1951,-0.597347425,-2682,-0.82116135
2023-10-21 21:30:56.329,12647,234740,208940,-2178,-0.66684915,-2709,-0.829428075
2023-10-21 21:30:56.329,12648,234750,208937,-2085,-0.638374875,-2727,-0.834939225
2023-10-21 21:30:56.358,12649,234751,208950,-2047,-0.626740225,-2739,-0.838613325
2023-10-21 21:30:56.358,12650,234760,208950,-2233,-0.683688775,-2741,-0.839225675
2023-10-21 21:30:56.358,12651,234774,208944,-2304,-0.7054272,-2741,-0.839225675
2023-10-21 21:30:56.358,12652,234774,208956,-2154,-0.65950095,-2741,-0.839225675
2023-10-21 21:30:56.358,12653,234806,208965,-2194,-0.67174795,-2734,-0.83708245
2023-10-21 21:30:56.388,12654,234810,208970,-2085,-0.638374875,-2716,-0.8315713
2023-10-21 21:30:56.388,12655,234854,208983,-2115,-0.647560125,-2689,-0.823304575
2023-10-21 21:30:56.388,12656,234848,208972,-2096,-0.6417428,-2653,-0.812282275
2023-10-21 21:30:56.388,12657,234871,208983,-2170,-0.66439975,-2606,-0.79789205
2023-10-21 21:30:56.388,12658,234901,208987,-2042,-0.62520935,-2554,-0.78197095
2023-10-21 21:30:56.388,12659,234909,209012,-2011,-0.615717925,-2507,-0.767580725
2023-10-21 21:30:56.388,12660,234930,209002,-2431,-0.744311425,-2464,-0.7544152
2023-10-21 21:30:56.421,12661,234944,209025,-2311,-0.707570425,-2421,-0.741249675
2023-10-21 21:30:56.421,12662,234970,209021,-2187,-0.669604725,-2370,-0.72563475
2023-10-21 21:30:56.421,12663,234995,209034,-2200,-0.673585,-2314,-0.70848895
2023-10-21 21:30:56.421,12664,235014,209040,-2122,-0.64970335,-2264,-0.6931802
2023-10-21 21:30:56.421,12665,235035,209042,-2083,-0.637762525,-2220,-0.6797085
2023-10-21 21:30:56.421,12666,235043,209049,-2457,-0.752271975,-2180,-0.6674615
2023-10-21 21:30:56.453,12667,235079,209067,-2405,-0.736350875,-2155,-0.659807125
2023-10-21 21:30:56.453,12668,235087,209066,-2156,-0.6601133,-2150,-0.65827625
2023-10-21 21:30:56.453,12669,235094,209078,-2051,-0.627964925,-2155,-0.659807125
2023-10-21 21:30:56.453,12670,235110,209080,-2260,-0.6919555,-2160,-0.661338
2023-10-21 21:30:56.453,12671,235114,209088,-2349,-0.719205075,-2160,-0.661338
2023-10-21 21:30:56.485,12672,235134,209094,-2166,-0.66317505,-2155,-0.659807125
2023-10-21 21:30:56.485,12673,235172,209098,-2087,-0.638987225,-2148,-0.6576639
2023-10-21 21:30:56.485,12674,235198,209091,-2122,-0.64970335,-2144,-0.6564392
2023-10-21 21:30:56.485,12675,235205,209096,-2234,-0.68399495,-2138,-0.65460215
2023-10-21 21:30:56.485,12676,235226,209111,-2125,-0.650621875,-2136,-0.6539898
2023-10-21 21:30:56.485,12677,235270,209120,-2120,-0.649091,-2148,-0.6576639
2023-10-21 21:30:56.485,12678,235286,209119,-2085,-0.638374875,-2165,-0.662868875
2023-10-21 21:30:56.514,12679,235311,209139,-2207,-0.675728225,-2175,-0.665930625
2023-10-21 21:30:56.514,12680,235316,209131,-2262,-0.69256785,-2177,-0.666542975
2023-10-21 21:30:56.514,12681,235364,209163,-2189,-0.670217075,-2173,-0.665318275
2023-10-21 21:30:56.514,12682,235385,209152,-2206,-0.67542205,-2170,-0.66439975
2023-10-21 21:30:56.514,12683,235396,209160,-2275,-0.696548125,-2177,-0.666542975
2023-10-21 21:30:56.514,12684,235413,209141,-2027,-0.620616725,-2194,-0.67174795
2023-10-21 21:30:56.547,12685,235399,209144,-2105,-0.644498375,-2209,-0.676340575
2023-10-21 21:30:56.547,12686,235403,209149,-2287,-0.700222225,-2222,-0.68032085
2023-10-21 21:30:56.547,12687,235403,209135,-2230,-0.68277025,-2235,-0.684301125
2023-10-21 21:30:56.547,12688,235399,209127,-2214,-0.67787145,-2243,-0.686750525
2023-10-21 21:30:56.547,12689,235382,209125,-2143,-0.656133025,-2241,-0.686138175
2023-10-21 21:30:56.578,12690,235372,209120,-1843,-0.564280525,-2231,-0.683076425
2023-10-21 21:30:56.578,12691,235376,209120,-2026,-0.62031055,-2221,-0.680014675
2023-10-21 21:30:56.578,12692,235358,209104,-1944,-0.5952042,-2217,-0.678789975
2023-10-21 21:30:56.578,12693,235339,209085,-2033,-0.622453775,-2216,-0.6784838
2023-10-21 21:30:56.578,12694,235317,209080,-2152,-0.6588886,-2208,-0.6760344
2023-10-21 21:30:56.578,12695,235319,209070,-2050,-0.62765875,-2193,-0.671441775
2023-10-21 21:30:56.608,12696,235284,209056,-1913,-0.585712775,-2183,-0.668380025
2023-10-21 21:30:56.608,12697,235274,209056,-2202,-0.67419735,-2181,-0.667767675
2023-10-21 21:30:56.608,12698,235280,209045,-2068,-0.6331699,-2178,-0.66684915
2023-10-21 21:30:56.608,12699,235274,209042,-2057,-0.629801975,-2172,-0.6650121
2023-10-21 21:30:56.608,12700,235266,209033,-2170,-0.66439975,-2171,-0.664705925
2023-10-21 21:30:56.608,12701,235240,209024,-1998,-0.61173765,-2174,-0.66562445
2023-10-21 21:30:56.640,12702,235244,209020,-1842,-0.56397435,-2177,-0.666542975
2023-10-21 21:30:56.640,12703,235226,209027,-1996,-0.6111253,-2180,-0.6674615
2023-10-21 21:30:56.640,12704,235233,209017,-1904,-0.5829572,-2182,-0.66807385
2023-10-21 21:30:56.640,12705,235251,209020,-1952,-0.5976536,-2184,-0.6686862
2023-10-21 21:30:56.640,12706,235238,209016,-2080,-0.636844,-2186,-0.66929855
2023-10-21 21:30:56.640,12707,235253,209027,-2328,-0.7127754,-2182,-0.66807385
2023-10-21 21:30:56.640,12708,235248,209024,-2209,-0.676340575,-2171,-0.664705925
2023-10-21 21:30:56.673,12709,235269,209032,-2072,-0.6343946,-2155,-0.659807125
2023-10-21 21:30:56.673,12710,235277,209043,-2203,-0.674503525,-2135,-0.653683625
2023-10-21 21:30:56.673,12711,235297,209044,-2170,-0.66439975,-2114,-0.64725395
2023-10-21 21:30:56.673,12712,235303,209045,-2128,-0.6515404,-2096,-0.6417428
2023-10-21 21:30:56.673,12713,235313,209050,-2289,-0.700834575,-2082,-0.63745635
2023-10-21 21:30:56.673,12714,235321,209056,-2029,-0.621229075,-2074,-0.63500695
2023-10-21 21:30:56.673,12715,235346,209057,-2135,-0.653683625,-2070,-0.63378225
2023-10-21 21:30:56.705,12716,235373,209078,-1998,-0.61173765,-2064,-0.6319452
2023-10-21 21:30:56.705,12717,235376,209071,-2086,-0.63868105,-2058,-0.63010815
2023-10-21 21:30:56.705,12718,235399,209066,-1987,-0.608369725,-2053,-0.628577275
2023-10-21 21:30:56.705,12719,235428,209071,-2173,-0.665318275,-2045,-0.626127875
2023-10-21 21:30:56.705,12720,235465,209080,-2202,-0.67419735,-2041,-0.624903175
2023-10-21 21:30:56.705,12721,235472,209091,-2196,-0.6723603,-2039,-0.624290825
2023-10-21 21:30:56.705,12722,235484,209105,-2162,-0.66195035,-2036,-0.6233723
2023-10-21 21:30:56.705,12723,235509,209106,-2176,-0.6662368,-2035,-0.623066125
2023-10-21 21:30:56.705,12724,235542,209108,-2003,-0.613268525,-2041,-0.624903175
2023-10-21 21:30:56.734,12725,235560,209114,-1911,-0.585100425,-2046,-0.62643405
2023-10-21 21:30:56.734,12726,235575,209112,-1979,-0.605920325,-2049,-0.627352575
2023-10-21 21:30:56.734,12727,235592,209114,-2172,-0.6650121,-2057,-0.629801975
2023-10-21 21:30:56.734,12728,235614,209128,-2215,-0.678177625,-2068,-0.6331699
2023-10-21 21:30:56.734,12729,235632,209132,-2070,-0.63378225,-2085,-0.638374875
2023-10-21 21:30:56.734,12730,235643,209150,-2101,-0.643273675,-2103,-0.643886025
2023-10-21 21:30:56.734,12731,235673,209163,-1826,-0.55907555,-2118,-0.64847865
2023-10-21 21:30:56.766,12732,235698,209162,-2050,-0.62765875,-2128,-0.6515404
2023-10-21 21:30:56.766,12733,235722,209175,-2065,-0.632251375,-2139,-0.654908325
2023-10-21 21:30:56.766,12734,235735,209176,-2097,-0.642048975,-2148,-0.6576639
2023-10-21 21:30:56.766,12735,235741,209181,-1828,-0.5596879,-2148,-0.6576639
2023-10-21 21:30:56.766,12736,235756,209185,-2038,-0.62398465,-2143,-0.656133025
2023-10-21 21:30:56.766,12737,235800,209196,-1929,-0.590611575,-2138,-0.65460215
2023-10-21 21:30:56.799,12738,235823,209196,-1975,-0.604695625,-2131,-0.652458925
2023-10-21 21:30:56.799,12739,235842,209223,-2047,-0.626740225,-2125,-0.650621875
2023-10-21 21:30:56.799,12740,235869,209226,-2056,-0.6294958,-2122,-0.64970335
2023-10-21 21:30:56.799,12741,235881,209243,-2031,-0.621841425,-2120,-0.649091
2023-10-21 21:30:56.799,12742,235906,209226,-2051,-0.627964925,-2115,-0.647560125
2023-10-21 21:30:56.799,12743,235918,209243,-2641,-0.808608175,-2109,-0.645723075
2023-10-21 21:30:56.799,12744,235952,209254,-2986,-0.91423855,-2103,-0.643886025
2023-10-21 21:30:56.799,12745,235952,209267,-3338,-1.02201215,-2101,-0.643273675
2023-10-21 21:30:56.830,12746,235981,209256,-3700,-1.1328475,-2101,-0.643273675
2023-10-21 21:30:56.830,12747,235992,209251,-3450,-1.05630375,-2101,-0.643273675
2023-10-21 21:30:56.830,12748,236014,209267,-3037,-0.929853475,-2097,-0.642048975
2023-10-21 21:30:56.830,12749,236017,209279,-2247,-0.687975225,-2091,-0.640211925
2023-10-21 21:30:56.830,12750,236036,209280,-1657,-0.507331975,-2082,-0.63745635
2023-10-21 21:30:56.830,12751,236051,209279,-1671,-0.511618425,-2066,-0.63255755
2023-10-21 21:30:56.858,12752,236066,209282,-1714,-0.52478395,-2047,-0.626740225
2023-10-21 21:30:56.858,12753,236085,209287,-1752,-0.5364186,-2034,-0.62275995
2023-10-21 21:30:56.858,12754,236086,209297,-1832,-0.5609126,-2030,-0.62153525
2023-10-21 21:30:56.858,12755,236108,209304,-1687,-0.516517225,-2027,-0.620616725
2023-10-21 21:30:56.858,12756,236114,209309,-1860,-0.5694855,-2025,-0.620004375
2023-10-21 21:30:56.891,12757,236112,209302,-2111,-0.646335425,-2020,-0.6184735
2023-10-21 21:30:56.891,12758,236136,209295,-2092,-0.6405181,-2013,-0.616330275
2023-10-21 21:30:56.891,12759,236122,209298,-2024,-0.6196982,-2012,-0.6160241
2023-10-21 21:30:56.891,12760,236161,209309,-1928,-0.5903054,-2030,-0.62153525
2023-10-21 21:30:56.922,12761,236166,209314,-2128,-0.6515404,-2077,-0.635925475
2023-10-21 21:30:56.922,12762,236171,209316,-2277,-0.697160475,-2161,-0.661644175
2023-10-21 21:30:56.922,12763,236178,209323,-2260,-0.6919555,-2282,-0.69869135
2023-10-21 21:30:56.922,12764,236211,209320,-2435,-0.745536125,-2748,-0.8413689
2023-10-21 21:30:56.922,12765,236208,209315,-2355,-0.721042125,-2897,-0.886988975
2023-10-21 21:30:56.922,12766,236218,209322,-1993,-0.610206775,-2796,-0.8560653
2023-10-21 21:30:56.952,12767,236236,209321,-2300,-0.7042025,-2637,-0.807383475
2023-10-21 21:30:56.952,12768,236239,209339,-2336,-0.7152248,-2498,-0.76482515
2023-10-21 21:30:56.952,12769,236268,209357,-2443,-0.747985525,-2294,-0.70236545
2023-10-21 21:30:56.952,12770,236276,209343,-2430,-0.74400525,-2064,-0.6319452
2023-10-21 21:30:56.952,12771,236300,209344,-2330,-0.71338775,-1916,-0.5866313
2023-10-21 21:30:56.952,12772,236291,209354,-2539,-0.777378325,-1893,-0.579589275
2023-10-21 21:30:56.985,12773,236306,209363,-2381,-0.729002675,-1990,-0.60928825
2023-10-21 21:30:56.985,12774,236332,209355,-2437,-0.746148475,-2114,-0.64725395
2023-10-21 21:30:56.985,12775,236354,209367,-2681,-0.820855175,-2125,-0.650621875
2023-10-21 21:30:56.985,12776,236394,209368,-2875,-0.880253125,-2004,-0.6135747
2023-10-21 21:30:56.985,12777,236396,209385,-2561,-0.784114175,-1906,-0.58356955
2023-10-21 21:30:56.985,12778,236429,209398,-2682,-0.82116135,-1857,-0.568566975
2023-10-21 21:30:56.985,12779,236436,209399,-2809,-0.860045575,-1861,-0.569791675
2023-10-21 21:30:57.014,12780,236458,209407,-2750,-0.84198125,-1909,-0.584488075
2023-10-21 21:30:57.014,12781,236486,209423,-2614,-0.80034145,-1984,-0.6074512
2023-10-21 21:30:57.014,12782,236494,209416,-2568,-0.7862574,-2061,-0.631026675
2023-10-21 21:30:57.014,12783,236535,209426,-2761,-0.845349175,-2121,-0.649397175
2023-10-21 21:30:57.014,12784,236547,209439,-2695,-0.825141625,-2159,-0.661031825
2023-10-21 21:30:57.014,12785,236583,209457,-2533,-0.775541275,-2181,-0.667767675
2023-10-21 21:30:57.045,12786,236581,209459,-2576,-0.7887068,-2201,-0.673891175
2023-10-21 21:30:57.045,12787,236583,209453,-2525,-0.773091875,-2229,-0.682464075
2023-10-21 21:30:57.045,12788,236620,209471,-2689,-0.823304575,-2268,-0.6944049
2023-10-21 21:30:57.045,12789,236627,209467,-2768,-0.8474924,-2308,-0.7066519
2023-10-21 21:30:57.045,12790,236635,209474,-2565,-0.785338875,-2339,-0.716143325
2023-10-21 21:30:57.045,12791,236634,209466,-2612,-0.7997291,-2359,-0.722266825
2023-10-21 21:30:57.045,12792,236606,209459,-2621,-0.802484675,-2378,-0.72808415
2023-10-21 21:30:57.045,12793,236558,209432,-2611,-0.799422925,-2404,-0.7360447
2023-10-21 21:30:57.077,12794,236486,209396,-2510,-0.76849925,-2439,-0.746760825
2023-10-21 21:30:57.077,12795,236363,209336,-2545,-0.779215375,-2478,-0.75870165
2023-10-21 21:30:57.077,12796,236235,209288,-2647,-0.810445225,-2521,-0.771867175
2023-10-21 21:30:57.077,12797,236102,209245,-2690,-0.82361075,-2562,-0.78442035
2023-10-21 21:30:57.077,12798,235967,209178,-2384,-0.7299212,-2597,-0.795136475
2023-10-21 21:30:57.077,12799,235826,209118,-2578,-0.78931915,-2624,-0.8034032
2023-10-21 21:30:57.077,12800,235732,209083,-2247,-0.687975225,-2644,-0.8095267
2023-10-21 21:30:57.109,12801,235617,209046,-2275,-0.696548125,-2661,-0.814731675
2023-10-21 21:30:57.109,12802,235554,208997,-2458,-0.75257815,-2672,-0.8180996
2023-10-21 21:30:57.109,12803,235454,208983,-2412,-0.7384941,-2676,-0.8193243
2023-10-21 21:30:57.109,12804,235383,208941,-2279,-0.697772825,-2674,-0.81871195
2023-10-21 21:30:57.109,12805,235350,208935,-2202,-0.67419735,-2674,-0.81871195
2023-10-21 21:30:57.109,12806,235275,208908,-2153,-0.659194775,-2674,-0.81871195
2023-10-21 21:30:57.141,12807,235223,208890,-2090,-0.63990575,-2663,-0.815344025
2023-10-21 21:30:57.141,12808,235199,208878,-2270,-0.69501725,-2645,-0.809832875
2023-10-21 21:30:57.141,12809,235191,208861,-2019,-0.618167325,-2632,-0.8058526
2023-10-21 21:30:57.141,12810,235165,208846,-2109,-0.645723075,-2629,-0.804934075
2023-10-21 21:30:57.141,12811,235146,208853,-2269,-0.694711075,-2627,-0.804321725
2023-10-21 21:30:57.141,12812,235154,208855,-2157,-0.660419475,-2623,-0.803097025
2023-10-21 21:30:57.141,12813,235141,208861,-2113,-0.646947775,-2620,-0.8021785
2023-10-21 21:30:57.170,12814,235143,208853,-1866,-0.57132255,-2616,-0.8009538
2023-10-21 21:30:57.170,12815,235157,208852,-1859,-0.569179325,-2609,-0.798810575
2023-10-21 21:30:57.170,12816,235156,208855,-1555,-0.476102125,-2598,-0.79544265
2023-10-21 21:30:57.170,12817,235176,208855,-1611,-0.493247925,-2582,-0.79054385
2023-10-21 21:30:57.170,12818,235189,208860,-1705,-0.522028375,-2563,-0.784726525
2023-10-21 21:30:57.170,12819,235218,208866,-1394,-0.42680795,-2544,-0.7789092
2023-10-21 21:30:57.203,12820,235233,208886,-1339,-0.409968325,-2520,-0.771561
2023-10-21 21:30:57.203,12821,235269,208890,-1330,-0.40721275,-2487,-0.761457225
2023-10-21 21:30:57.203,12822,235298,208899,-1300,-0.3980275,-2453,-0.751047275
2023-10-21 21:30:57.203,12823,235326,208895,-1418,-0.43415615,-2420,-0.7409435
2023-10-21 21:30:57.203,12824,235360,208911,-1016,-0.3110738,-2389,-0.731452075
2023-10-21 21:30:57.233,12825,235385,208914,-1086,-0.33250605,-2357,-0.721654475
2023-10-21 21:30:57.233,12826,235400,208935,-1113,-0.340772775,-2321,-0.710632175
2023-10-21 21:30:57.233,12827,235439,208943,-1404,-0.4298697,-2280,-0.698079
2023-10-21 21:30:57.233,12828,235450,208961,-1659,-0.507944325,-2245,-0.687362875
2023-10-21 21:30:57.233,12829,235471,208959,-1367,-0.418541225,-2221,-0.680014675
2023-10-21 21:30:57.233,12830,235511,208966,-1455,-0.445484625,-2201,-0.673891175
2023-10-21 21:30:57.233,12831,235537,208977,-1593,-0.487736775,-2178,-0.66684915
2023-10-21 21:30:57.233,12832,235544,208987,-1687,-0.516517225,-2150,-0.65827625
2023-10-21 21:30:57.266,12833,235539,208978,-1736,-0.5315198,-2110,-0.64602925
2023-10-21 21:30:57.266,12834,235583,208990,-1957,-0.599184475,-2059,-0.630414325
2023-10-21 21:30:57.266,12835,235602,209009,-1945,-0.595510375,-2003,-0.613268525
2023-10-21 21:30:57.266,12836,235637,209025,-1653,-0.506107275,-1939,-0.593673325
2023-10-21 21:30:57.266,12837,235644,209034,-1891,-0.578976925,-1874,-0.57377195
2023-10-21 21:30:57.266,12838,235665,209030,-2047,-0.626740225,-1811,-0.554482925
2023-10-21 21:30:57.297,12839,235701,209048,-2226,-0.68154555,-1744,-0.5339692
2023-10-21 21:30:57.297,12840,235726,209069,-2008,-0.6147994,-1671,-0.511618425
2023-10-21 21:30:57.297,12841,235762,209081,-1961,-0.600409175,-1587,-0.485899725
2023-10-21 21:30:57.297,12842,235806,209101,-1954,-0.59826595,-1499,-0.458956325
2023-10-21 21:30:57.297,12843,235836,209097,-2181,-0.667767675,-1420,-0.4347685
2023-10-21 21:30:57.326,12844,235868,209100,-1972,-0.6037771,-1365,-0.417928875
2023-10-21 21:30:57.326,12845,235905,209120,-1821,-0.557544675,-1336,-0.4090498
2023-10-21 21:30:57.326,12846,235927,209138,-1755,-0.537337125,-1320,-0.404151
2023-10-21 21:30:57.326,12847,235953,209135,-1724,-0.5278457,-1314,-0.40231395
2023-10-21 21:30:57.326,12848,235973,209143,-1836,-0.5621373,-1325,-0.405681875
2023-10-21 21:30:57.326,12849,235976,209139,-1807,-0.553258225,-1347,-0.412417725
2023-10-21 21:30:57.357,12850,236005,209138,-1937,-0.593060975,-1378,-0.42190915
2023-10-21 21:30:57.357,12851,235981,209143,-1774,-0.54315445,-1418,-0.43415615
2023-10-21 21:30:57.357,12852,236003,209153,-1760,-0.538868,-1472,-0.4506896
2023-10-21 21:30:57.357,12853,235992,209135,-2084,-0.6380687,-1534,-0.46967245
2023-10-21 21:30:57.357,12854,235982,209145,-2064,-0.6319452,-1602,-0.49049235
2023-10-21 21:30:57.358,12855,235978,209126,-1939,-0.593673325,-1672,-0.5119246
2023-10-21 21:30:57.390,12856,235960,209132,-2044,-0.6258217,-1736,-0.5315198
2023-10-21 21:30:57.390,12857,235940,209117,-2216,-0.6784838,-1794,-0.54927795
2023-10-21 21:30:57.390,12858,235933,209087,-2335,-0.714918625,-1844,-0.5645867
2023-10-21 21:30:57.390,12859,235889,209097,-2455,-0.751659625,-1885,-0.577139875
2023-10-21 21:30:57.390,12860,235897,209066,-2426,-0.74278055,-1925,-0.589386875
2023-10-21 21:30:57.390,12861,235853,209062,-2342,-0.71706185,-1959,-0.599796825
2023-10-21 21:30:57.390,12862,235823,209073,-2192,-0.6711356,-1977,-0.605307975
2023-10-21 21:30:57.421,12863,235807,209065,-2363,-0.723491525,-1981,-0.606532675
2023-10-21 21:30:57.421,12864,235811,209037,-2556,-0.7825833,-1978,-0.60561415
2023-10-21 21:30:57.421,12865,235793,209040,-2432,-0.7446176,-1968,-0.6025524
2023-10-21 21:30:57.421,12866,235776,209032,-2336,-0.7152248,-1950,-0.59704125
2023-10-21 21:30:57.421,12867,235758,209022,-2524,-0.7727857,-1928,-0.5903054
2023-10-21 21:30:57.421,12868,235780,209039,-2679,-0.820242825,-1907,-0.583875725
2023-10-21 21:30:57.421,12869,235774,209036,-2571,-0.787175925,-1893,-0.579589275
2023-10-21 21:30:57.454,12870,235781,209033,-2348,-0.7188989,-1885,-0.577139875
2023-10-21 21:30:57.454,12871,235779,209039,-2421,-0.741249675,-1877,-0.574690475
2023-10-21 21:30:57.454,12872,235790,209028,-2726,-0.83463305,-1869,-0.572241075
2023-10-21 21:30:57.454,12873,235789,209037,-2674,-0.81871195,-1872,-0.5731596
2023-10-21 21:30:57.454,12874,235790,209041,-2528,-0.7740104,-1893,-0.579589275
2023-10-21 21:30:57.484,12875,235818,209050,-2336,-0.7152248,-1933,-0.591836275
2023-10-21 21:30:57.484,12876,235841,209057,-2305,-0.705733375,-1984,-0.6074512
2023-10-21 21:30:57.484,12877,235851,209059,-2274,-0.69624195,-2040,-0.624597
2023-10-21 21:30:57.518,12878,235866,209061,-2108,-0.6454169,-2091,-0.640211925
2023-10-21 21:30:57.518,12879,235866,209077,-2239,-0.685525825,-2138,-0.65460215
2023-10-21 21:30:57.518,12880,235888,209092,-2267,-0.694098725,-2187,-0.669604725
2023-10-21 21:30:57.518,12881,235905,209088,-2210,-0.67664675,-2234,-0.68399495
2023-10-21 21:30:57.518,12882,235935,209091,-2086,-0.63868105,-2274,-0.69624195
2023-10-21 21:30:57.518,12883,235940,209100,-2214,-0.67787145,-2310,-0.70726425
2023-10-21 21:30:57.547,12884,235967,209077,-2250,-0.68889375,-2347,-0.718592725
2023-10-21 21:30:57.547,12885,235986,209106,-1891,-0.578976925,-2387,-0.730839725
2023-10-21 21:30:57.547,12886,236009,209130,-1946,-0.59581655,-2420,-0.7409435
2023-10-21 21:30:57.547,12887,236026,209124,-2071,-0.634088425,-2440,-0.747067
2023-10-21 21:30:57.547,12888,236051,209128,-1942,-0.59459185,-2450,-0.75012875
2023-10-21 21:30:57.547,12889,236081,209149,-1745,-0.534275375,-2465,-0.754721375
2023-10-21 21:30:57.576,12890,236117,209147,-1681,-0.514680175,-2485,-0.760844875
2023-10-21 21:30:57.576,12891,236116,209156,-1590,-0.48681825,-2503,-0.766356025
2023-10-21 21:30:57.576,12892,236142,209170,-1777,-0.544072975,-2509,-0.768193075
2023-10-21 21:30:57.576,12893,236177,209169,-1817,-0.556319975,-2511,-0.768805425
2023-10-21 21:30:57.576,12894,236184,209174,-1649,-0.504882575,-2510,-0.76849925
2023-10-21 21:30:57.576,12895,236212,209197,-1818,-0.55662615,-2496,-0.7642128
2023-10-21 21:30:57.576,12896,236249,209214,-1773,-0.542848275,-2466,-0.75502755
2023-10-21 21:30:57.607,12897,236247,209216,-2117,-0.648172475,-2428,-0.7433929
2023-10-21 21:30:57.607,12898,236292,209203,-2327,-0.712469225,-2393,-0.732676775
2023-10-21 21:30:57.610,12899,236290,209226,-2195,-0.672054125,-2362,-0.72318535
2023-10-21 21:30:57.610,12900,236319,209229,-2404,-0.7360447,-2331,-0.713693925
2023-10-21 21:30:57.610,12901,236334,209240,-2222,-0.68032085,-2298,-0.70359015
2023-10-21 21:30:57.610,12902,236342,209250,-2430,-0.74400525,-2260,-0.6919555
2023-10-21 21:30:57.610,12903,236380,209235,-2373,-0.726553275,-2218,-0.67909615
2023-10-21 21:30:57.639,12904,236399,209254,-2387,-0.730839725,-2177,-0.666542975
2023-10-21 21:30:57.639,12905,236400,209271,-2444,-0.7482917,-2139,-0.654908325
2023-10-21 21:30:57.639,12906,236441,209276,-2611,-0.799422925,-2102,-0.64357985
2023-10-21 21:30:57.639,12907,236474,209277,-2441,-0.747373175,-2065,-0.632251375
2023-10-21 21:30:57.639,12908,236469,209284,-2196,-0.6723603,-2024,-0.6196982
2023-10-21 21:30:57.673,12909,236492,209302,-2288,-0.7005284,-1985,-0.607757375
2023-10-21 21:30:57.673,12910,236516,209306,-2805,-0.858820875,-1946,-0.59581655
2023-10-21 21:30:57.673,12911,236533,209315,-3124,-0.9564907,-1899,-0.581426325
2023-10-21 21:30:57.673,12912,236533,209307,-3614,-1.10651645,-1851,-0.566729925
2023-10-21 21:30:57.673,12913,236545,209317,-4114,-1.25960395,-1818,-0.55662615
2023-10-21 21:30:57.673,12914,236582,209312,-4033,-1.234803775,-1808,-0.5535644
2023-10-21 21:30:57.673,12915,236578,209336,-3720,-1.138971,-1818,-0.55662615
2023-10-21 21:30:57.703,12916,236594,209329,-3284,-1.0054787,-1841,-0.563668175
2023-10-21 21:30:57.703,12917,236593,209321,-2255,-0.690424625,-1876,-0.5743843
2023-10-21 21:30:57.703,12918,236620,209318,-1926,-0.58969305,-1923,-0.588774525
2023-10-21 21:30:57.703,12919,236637,209329,-1955,-0.598572125,-1981,-0.606532675
2023-10-21 21:30:57.703,12920,236641,209344,-1862,-0.57009785,-2043,-0.625515525
2023-10-21 21:30:57.703,12921,236654,209347,-1773,-0.542848275,-2106,-0.64480455
2023-10-21 21:30:57.734,12922,236666,209353,-1891,-0.578976925,-2172,-0.6650121
2023-10-21 21:30:57.734,12923,236664,209353,-1864,-0.5707102,-2241,-0.686138175
2023-10-21 21:30:57.734,12924,236677,209367,-1874,-0.57377195,-2304,-0.7054272
2023-10-21 21:30:57.734,12925,236695,209367,-1838,-0.56274965,-2346,-0.71828655
2023-10-21 21:30:57.766,12926,236711,209357,-1473,-0.450995775,-2372,-0.7262471
2023-10-21 21:30:57.766,12927,236724,209370,-1150,-0.35210125,-2403,-0.735738525
2023-10-21 21:30:57.766,12928,236728,209379,-1165,-0.356693875,-2449,-0.749822575
2023-10-21 21:30:57.766,12929,236717,209367,-1178,-0.36067415,-2520,-0.771561
2023-10-21 21:30:57.766,12930,236751,209372,-1044,-0.3196467,-2623,-0.803097025
2023-10-21 21:30:57.766,12931,236744,209381,-1022,-0.31291085,-2909,-0.890663075
2023-10-21 21:30:57.766,12932,236763,209381,-886,-0.27127105,-3322,-1.01711335
2023-10-21 21:30:57.799,12933,236772,209388,-679,-0.207892825,-3385,-1.036402375
2023-10-21 21:30:57.799,12934,236792,209388,-614,-0.18799145,-3186,-0.97547355
2023-10-21 21:30:57.799,12935,236816,209378,-330,-0.10103775,-2949,-0.902910075
2023-10-21 21:30:57.799,12936,236802,209389,-347,-0.106242725,-2690,-0.82361075
2023-10-21 21:30:57.799,12937,236829,209397,-474,-0.14512695,-2350,-0.71951125
2023-10-21 21:30:57.799,12938,236831,209386,-295,-0.090321625,-2061,-0.631026675
2023-10-21 21:30:57.827,12939,236850,209398,-212,-0.0649091,-1958,-0.59949065
2023-10-21 21:30:57.827,12940,236856,209405,-37,-0.011328475,-2001,-0.612656175
2023-10-21 21:30:57.827,12941,236875,209404,-151,-0.046232425,-2079,-0.636537825
2023-10-21 21:30:57.827,12942,236909,209430,-175,-0.053580625,-2084,-0.6380687
2023-10-21 21:30:57.827,12943,236935,209425,-322,-0.09858835,-1961,-0.600409175
2023-10-21 21:30:57.827,12944,236944,209435,-115,-0.035210125,-1878,-0.57499665
2023-10-21 21:30:57.827,12945,236964,209444,-3,-0.000918525,-1833,-0.561218775
2023-10-21 21:30:57.827,12946,236998,209435,35,0.010716125,-1693,-0.518354275
2023-10-21 21:30:57.827,12947,237008,209454,-164,-0.0502127,-1593,-0.487736775
2023-10-21 21:30:57.859,12948,237028,209446,131,0.040108925,-1522,-0.46599835
2023-10-21 21:30:57.859,12949,237042,209473,-302,-0.09246485,-1463,-0.447934025
2023-10-21 21:30:57.859,12950,237057,209474,-367,-0.112366225,-1393,-0.426501775
2023-10-21 21:30:57.859,12951,237079,209483,227,0.069501725,-1297,-0.397108975
2023-10-21 21:30:57.859,12952,237094,209480,39,0.011940825,-1174,-0.35944945
2023-10-21 21:30:57.859,12953,237121,209511,-45,-0.013777875,-1036,-0.3171973
2023-10-21 21:30:57.859,12954,237135,209491,-26,-0.00796055,-909,-0.278313075
2023-10-21 21:30:57.890,12955,237175,209506,-114,-0.03490395,-803,-0.245858525
2023-10-21 21:30:57.890,12956,237192,209516,-119,-0.036434825,-711,-0.217690425
2023-10-21 21:30:57.890,12957,237191,209508,197,0.060316475,-624,-0.1910532
2023-10-21 21:30:57.890,12958,237194,209512,-65,-0.019901375,-540,-0.1653345
2023-10-21 21:30:57.890,12959,237178,209502,9,0.002755575,-461,-0.141146675
2023-10-21 21:30:57.921,12960,237141,209487,41,0.012553175,-389,-0.119102075
2023-10-21 21:30:57.921,12961,237109,209478,-104,-0.0318422,-324,-0.0992007
2023-10-21 21:30:57.921,12962,237020,209435,-157,-0.048069475,-264,-0.0808302
2023-10-21 21:30:57.921,12963,236942,209381,-38,-0.01163465,-218,-0.06674615
2023-10-21 21:30:57.921,12964,236806,209320,91,0.027861925,-186,-0.05694855
2023-10-21 21:30:57.921,12965,236660,209258,109,0.033373075,-159,-0.048681825
2023-10-21 21:30:57.921,12966,236522,209212,-63,-0.019289025,-139,-0.042558325
2023-10-21 21:30:57.952,12967,236394,209146,36,0.0110223,-128,-0.0391904
2023-10-21 21:30:57.952,12968,236272,209103,44,0.0134717,-114,-0.03490395
2023-10-21 21:30:57.952,12969,236160,209061,334,0.10226245,-98,-0.03000515
2023-10-21 21:30:57.952,12970,236099,209026,159,0.048681825,-86,-0.02633105
2023-10-21 21:30:57.952,12971,236020,209000,417,0.127674975,-76,-0.0232693
2023-10-21 21:30:57.952,12972,235958,208993,389,0.119102075,-70,-0.02143225
2023-10-21 21:30:57.985,12973,235894,208959,382,0.11695885,-66,-0.02020755
2023-10-21 21:30:57.985,12974,235835,208941,618,0.18921615,-55,-0.016839625
2023-10-21 21:30:57.985,12975,235802,208902,795,0.243409125,-42,-0.01285935
2023-10-21 21:30:57.985,12976,235766,208906,635,0.194421125,-37,-0.011328475
2023-10-21 21:30:57.985,12977,235746,208898,389,0.119102075,-31,-0.009491425
2023-10-21 21:30:57.985,12978,235734,208894,536,0.1641098,-25,-0.007654375
2023-10-21 21:30:57.985,12979,235734,208891,632,0.1935026,-28,-0.0085729
2023-10-21 21:30:57.985,12980,235714,208883,1016,0.3110738,-30,-0.00918525
2023-10-21 21:30:57.985,12981,235718,208907,912,0.2792316,-24,-0.0073482
2023-10-21 21:30:58.014,12982,235732,208903,778,0.23820415,-14,-0.00428645
2023-10-21 21:30:58.014,12983,235736,208891,388,0.1187959,-8,-0.0024494
2023-10-21 21:30:58.014,12984,235743,208897,599,0.183398825,-9,-0.002755575
2023-10-21 21:30:58.014,12985,235769,208915,972,0.2976021,-10,-0.00306175
2023-10-21 21:30:58.014,12986,235780,208888,1115,0.341385125,0,0
2023-10-21 21:30:58.014,12987,235805,208924,1093,0.334649275,21,0.006429675
2023-10-21 21:30:58.014,12988,235843,208925,870,0.26637225,51,0.015614925
2023-10-21 21:30:58.046,12989,235852,208944,874,0.26759695,85,0.026024875
2023-10-21 21:30:58.046,12990,235886,208956,774,0.23697945,124,0.0379657
2023-10-21 21:30:58.046,12991,235912,208974,875,0.267903125,170,0.05204975
2023-10-21 21:30:58.046,12992,235934,208986,819,0.250757325,224,0.0685832
2023-10-21 21:30:58.046,12993,235968,208978,855,0.261779625,283,0.086647525
2023-10-21 21:30:58.077,12994,236003,209007,842,0.25779935,340,0.1040995
2023-10-21 21:30:58.077,12995,236015,209015,815,0.249532625,393,0.120326775
2023-10-21 21:30:58.077,12996,236062,209019,940,0.2878045,443,0.135635525
2023-10-21 21:30:58.077,12997,236093,209040,1014,0.31046145,494,0.15125045
2023-10-21 21:30:58.077,12998,236100,209032,1007,0.308318225,547,0.167477725
2023-10-21 21:30:58.077,12999,236126,209055,1001,0.306481175,593,0.181561775
2023-10-21 21:30:58.077,13000,236139,209044,1080,0.330669,628,0.1922779
2023-10-21 21:30:58.077,13001,236183,209077,1215,0.372002625,658,0.20146315
2023-10-21 21:30:58.108,13002,236186,209075,1055,0.323014625,687,0.210342225
2023-10-21 21:30:58.108,13003,236231,209086,1006,0.30801205,712,0.2179966
2023-10-21 21:30:58.108,13004,236252,209097,1062,0.32515785,736,0.2253448
2023-10-21 21:30:58.108,13005,236294,209100,1226,0.37537055,764,0.2339177
2023-10-21 21:30:58.108,13006,236337,209129,1264,0.3870052,796,0.2437153
2023-10-21 21:30:58.108,13007,236374,209141,1015,0.310767625,827,0.253206725
2023-10-21 21:30:58.139,13008,236382,209165,931,0.285048925,849,0.259942575
2023-10-21 21:30:58.139,13009,236437,209164,1192,0.3649606,858,0.26269815
2023-10-21 21:30:58.139,13010,236469,209178,1568,0.4800824,860,0.2633105
2023-10-21 21:30:58.139,13011,236512,209182,1620,0.4960035,865,0.264841375
2023-10-21 21:30:58.139,13012,236541,209215,1488,0.4555884,871,0.266678425
2023-10-21 21:30:58.170,13013,236596,209220,1554,0.47579595,877,0.268515475
2023-10-21 21:30:58.170,13014,236603,209216,1676,0.5131493,883,0.270352525
2023-10-21 21:30:58.170,13015,236635,209224,1836,0.5621373,893,0.273414275
2023-10-21 21:30:58.170,13016,236641,209238,1901,0.582038675,904,0.2767822
2023-10-21 21:30:58.170,13017,236659,209234,1920,0.587856,915,0.280150125
2023-10-21 21:30:58.170,13018,236669,209244,1723,0.527539525,925,0.283211875
2023-10-21 21:30:58.203,13019,236661,209233,1872,0.5731596,936,0.2865798
2023-10-21 21:30:58.203,13020,236666,209224,1770,0.54192975,952,0.2914786
2023-10-21 21:30:58.203,13021,236640,209219,1944,0.5952042,979,0.299745325
2023-10-21 21:30:58.203,13022,236613,209227,1952,0.5976536,1017,0.311379975
2023-10-21 21:30:58.203,13023,236620,209217,1836,0.5621373,1055,0.323014625
2023-10-21 21:30:58.203,13024,236604,209205,1858,0.56887315,1078,0.33005665
2023-10-21 21:30:58.237,13025,236572,209193,2009,0.615105575,1084,0.3318937
2023-10-21 21:30:58.237,13026,236547,209182,2152,0.6588886,1089,0.333424575
2023-10-21 21:30:58.237,13027,236534,209165,2368,0.7250224,1112,0.3404666
2023-10-21 21:30:58.237,13028,236493,209150,1988,0.6086759,1149,0.351795075
2023-10-21 21:30:58.237,13029,236451,209137,2044,0.6258217,1188,0.3637359
2023-10-21 21:30:58.237,13030,236444,209133,2090,0.63990575,1229,0.376289075
2023-10-21 21:30:58.237,13031,236435,209134,1987,0.608369725,1279,0.391597825
2023-10-21 21:30:58.237,13032,236420,209119,2035,0.623066125,1337,0.409355975
2023-10-21 21:30:58.265,13033,236407,209111,2070,0.63378225,1399,0.428338825
2023-10-21 21:30:58.265,13034,236402,209112,2014,0.61663645,1461,0.447321675
2023-10-21 21:30:58.265,13035,236384,209117,2023,0.619392025,1526,0.46722305
2023-10-21 21:30:58.265,13036,236381,209103,1933,0.591836275,1597,0.488961475
2023-10-21 21:30:58.265,13037,236369,209097,1906,0.58356955,1664,0.5094752
2023-10-21 21:30:58.265,13038,236372,209101,2193,0.671441775,1720,0.526621
2023-10-21 21:30:58.265,13039,236383,209099,2260,0.6919555,1765,0.540398875
2023-10-21 21:30:58.299,13040,236405,209106,2226,0.68154555,1801,0.551421175
2023-10-21 21:30:58.299,13041,236422,209123,1930,0.59091775,1831,0.560606425
2023-10-21 21:30:58.299,13042,236411,209108,2198,0.67297265,1856,0.5682608
2023-10-21 21:30:58.299,13043,236429,209112,2116,0.6478663,1881,0.575915175
2023-10-21 21:30:58.299,13044,236435,209127,1909,0.584488075,1910,0.58479425
2023-10-21 21:30:58.329,13045,236448,209116,2094,0.64113045,1938,0.59336715
2023-10-21 21:30:58.329,13046,236467,209129,2393,0.732676775,1965,0.601633875
2023-10-21 21:30:58.329,13047,236484,209132,2154,0.65950095,1991,0.609594425
2023-10-21 21:30:58.329,13048,236499,209132,1976,0.6050018,2011,0.615717925
2023-10-21 21:30:58.329,13049,236548,209142,2040,0.624597,2024,0.6196982
2023-10-21 21:30:58.329,13050,236550,209157,2072,0.6343946,2034,0.62275995
2023-10-21 21:30:58.329,13051,236583,209154,1993,0.610206775,2047,0.626740225
2023-10-21 21:30:58.361,13052,236606,209161,2224,0.6809332,2061,0.631026675
2023-10-21 21:30:58.361,13053,236616,209162,2318,0.70971365,2069,0.633476075
2023-10-21 21:30:58.361,13054,236638,209159,2186,0.66929855,2065,0.632251375
2023-10-21 21:30:58.361,13055,236675,209198,2204,0.6748097,2055,0.629189625
2023-10-21 21:30:58.361,13056,236689,209195,2113,0.646947775,2052,0.6282711
2023-10-21 21:30:58.361,13057,236698,209198,1988,0.6086759,2054,0.62888345
2023-10-21 21:30:58.391,13058,236732,209220,2213,0.677565275,2056,0.6294958
2023-10-21 21:30:58.391,13059,236768,209218,2224,0.6809332,2062,0.63133285
2023-10-21 21:30:58.391,13060,236788,209251,1973,0.604083275,2071,0.634088425
2023-10-21 21:30:58.391,13061,236808,209249,2033,0.622453775,2077,0.635925475
2023-10-21 21:30:58.391,13062,236836,209261,2214,0.67787145,2082,0.63745635
2023-10-21 21:30:58.420,13063,236878,209259,2089,0.639599575,2093,0.640824275
2023-10-21 21:30:58.420,13064,236893,209258,2304,0.7054272,2107,0.645110725
2023-10-21 21:30:58.420,13065,236914,209275,2340,0.7164495,2117,0.648172475
2023-10-21 21:30:58.420,13066,236923,209283,2339,0.716143325,2122,0.64970335
2023-10-21 21:30:58.420,13067,236948,209299,2219,0.679402325,2120,0.649091
2023-10-21 21:30:58.420,13068,236978,209303,2292,0.7017531,2115,0.647560125
2023-10-21 21:30:58.420,13069,237002,209322,2068,0.6331699,2114,0.64725395
2023-10-21 21:30:58.454,13070,237009,209305,2373,0.726553275,2114,0.64725395
2023-10-21 21:30:58.454,13071,237033,209311,2541,0.777990675,2115,0.647560125
2023-10-21 21:30:58.454,13072,237057,209326,2393,0.732676775,2124,0.6503157
2023-10-21 21:30:58.454,13073,237077,209323,2417,0.740024975,2135,0.653683625
2023-10-21 21:30:58.454,13074,237093,209351,2428,0.7433929,2141,0.655520675
2023-10-21 21:30:58.454,13075,237097,209345,2443,0.747985525,2145,0.656745375
2023-10-21 21:30:58.482,13076,237125,209354,2619,0.801872325,2149,0.657970075
2023-10-21 21:30:58.482,13077,237158,209369,2615,0.800647625,2145,0.656745375
2023-10-21 21:30:58.482,13078,237177,209373,2700,0.8266725,2137,0.654295975
2023-10-21 21:30:58.482,13079,237204,209372,2665,0.815956375,2136,0.6539898
2023-10-21 21:30:58.482,13080,237227,209400,2203,0.674503525,2141,0.655520675
2023-10-21 21:30:58.517,13081,237236,209394,1653,0.506107275,2149,0.657970075
2023-10-21 21:30:58.517,13082,237244,209394,1318,0.40353865,2160,0.661338
2023-10-21 21:30:58.517,13083,237283,209412,1076,0.3294443,2168,0.6637874
2023-10-21 21:30:58.517,13084,237301,209404,1004,0.3073997,2174,0.66562445
2023-10-21 21:30:58.517,13085,237316,209409,1546,0.47334655,2181,0.667767675
2023-10-21 21:30:58.517,13086,237323,209422,2411,0.738187925,2187,0.669604725
2023-10-21 21:30:58.547,13087,237362,209417,3019,0.924342325,2201,0.673891175
2023-10-21 21:30:58.547,13088,237361,209417,3045,0.932302875,2230,0.68277025
2023-10-21 21:30:58.547,13089,237380,209419,2938,0.89954215,2262,0.69256785
2023-10-21 21:30:58.547,13090,237403,209441,2714,0.83095895,2289,0.700834575
2023-10-21 21:30:58.547,13091,237424,209435,2845,0.871067875,2312,0.7078766
2023-10-21 21:30:58.547,13092,237434,209444,2889,0.884539575,2335,0.714918625
2023-10-21 21:30:58.578,13093,237455,209447,2617,0.801259975,2360,0.722573
2023-10-21 21:30:58.578,13094,237452,209450,2563,0.784726525,2389,0.731452075
2023-10-21 21:30:58.578,13095,237472,209461,2399,0.734513825,2420,0.7409435
2023-10-21 21:30:58.578,13096,237484,209454,2410,0.73788175,2451,0.750434925
2023-10-21 21:30:58.610,13097,237498,209465,2704,0.8278972,2469,0.755946075
2023-10-21 21:30:58.610,13098,237514,209461,2972,0.9099521,2459,0.752884325
2023-10-21 21:30:58.610,13099,237524,209474,2866,0.87749755,2412,0.7384941
2023-10-21 21:30:58.610,13100,237530,209463,2683,0.821467525,2332,0.7140001
2023-10-21 21:30:58.610,13101,237550,209473,2620,0.8021785,2098,0.64235515
2023-10-21 21:30:58.610,13102,237570,209470,2598,0.79544265,1775,0.543460625
2023-10-21 21:30:58.610,13103,237560,209480,2476,0.7580893,1835,0.561831125
2023-10-21 21:30:58.643,13104,237568,209483,2297,0.703283975,2019,0.618167325
2023-10-21 21:30:58.643,13105,237599,209490,2817,0.862494975,2194,0.67174795
2023-10-21 21:30:58.643,13106,237608,209505,2786,0.85300355,2420,0.7409435
2023-10-21 21:30:58.643,13107,237623,209517,2408,0.7372694,2618,0.80156615
2023-10-21 21:30:58.643,13108,237634,209500,1927,0.589999225,2734,0.83708245
2023-10-21 21:30:58.643,13109,237655,209529,2034,0.62275995,2729,0.835551575
2023-10-21 21:30:58.673,13110,237710,209526,2386,0.73053355,2603,0.796973525
2023-10-21 21:30:58.673,13111,237700,209538,2423,0.741862025,2476,0.7580893
2023-10-21 21:30:58.673,13112,237725,209536,2265,0.693486375,2454,0.75135345
2023-10-21 21:30:58.673,13113,237738,209538,2171,0.664705925,2589,0.792687075
2023-10-21 21:30:58.701,13114,237747,209540,2369,0.725328575,2700,0.8266725
2023-10-21 21:30:58.701,13115,237783,209548,2503,0.766356025,2763,0.845961525
2023-10-21 21:30:58.701,13116,237802,209554,2342,0.71706185,2781,0.851472675
2023-10-21 21:30:58.701,13117,237806,209560,2403,0.735738525,2761,0.845349175
2023-10-21 21:30:58.701,13118,237849,209566,2382,0.72930885,2721,0.833102175
2023-10-21 21:30:58.701,13119,237856,209589,2417,0.740024975,2679,0.820242825
2023-10-21 21:30:58.701,13120,237905,209592,2446,0.74890405,2646,0.81013905
2023-10-21 21:30:58.735,13121,237903,209604,2215,0.678177625,2628,0.8046279
2023-10-21 21:30:58.735,13122,237930,209600,2425,0.742474375,2632,0.8058526
2023-10-21 21:30:58.735,13123,237955,209618,2252,0.6895061,2648,0.8107514
2023-10-21 21:30:58.735,13124,237969,209614,2356,0.7213483,2650,0.81136375
2023-10-21 21:30:58.735,13125,237988,209631,2193,0.671441775,2622,0.80279085
2023-10-21 21:30:58.735,13126,237981,209607,2223,0.680627025,2573,0.787788275
2023-10-21 21:30:58.764,13127,237977,209597,2179,0.667155325,2526,0.77339805
2023-10-21 21:30:58.764,13128,237943,209580,2368,0.7250224,2489,0.762069575
2023-10-21 21:30:58.764,13129,237914,209558,2176,0.6662368,2450,0.75012875
2023-10-21 21:30:58.764,13130,237823,209521,2042,0.62520935,2404,0.7360447
2023-10-21 21:30:58.764,13131,237703,209481,2271,0.695323425,2367,0.724716225
2023-10-21 21:30:58.764,13132,237548,209413,2045,0.626127875,2350,0.71951125
2023-10-21 21:30:58.764,13133,237387,209349,2297,0.703283975,2341,0.716755675
2023-10-21 21:30:58.796,13134,237197,209253,2198,0.67297265,2330,0.71338775
2023-10-21 21:30:58.796,13135,237022,209175,2357,0.721654475,2324,0.7115507
2023-10-21 21:30:58.796,13136,236853,209122,2181,0.667767675,2329,0.713081575
2023-10-21 21:30:58.796,13137,236720,209080,2114,0.64725395,2339,0.716143325
2023-10-21 21:30:58.796,13138,236600,209028,2259,0.691649325,2345,0.717980375
2023-10-21 21:30:58.796,13139,236493,208960,2413,0.738800275,2350,0.71951125
2023-10-21 21:30:58.796,13140,236434,208963,2591,0.793299425,2362,0.72318535
2023-10-21 21:30:58.826,13141,236378,208934,2347,0.718592725,2378,0.72808415
2023-10-21 21:30:58.826,13142,236300,208901,2409,0.737575575,2381,0.729002675
2023-10-21 21:30:58.826,13143,236247,208904,2691,0.823916925,2366,0.72441005
2023-10-21 21:30:58.826,13144,236196,208874,2451,0.750434925,2343,0.717368025
2023-10-21 21:30:58.826,13145,236161,208860,2426,0.74278055,2324,0.7115507
2023-10-21 21:30:58.826,13146,236163,208854,2617,0.801259975,2309,0.706958075
2023-10-21 21:30:58.861,13147,236145,208860,2642,0.80891435,2293,0.702059275
2023-10-21 21:30:58.861,13148,236129,208859,2726,0.83463305,2275,0.696548125
2023-10-21 21:30:58.861,13149,236128,208848,2879,0.881477825,2256,0.6907308
2023-10-21 21:30:58.861,13150,236142,208870,2545,0.779215375,2238,0.68521965
2023-10-21 21:30:58.861,13151,236133,208852,2549,0.780440075,2224,0.6809332
2023-10-21 21:30:58.861,13152,236144,208864,2375,0.727165625,2216,0.6784838
2023-10-21 21:30:58.861,13153,236164,208880,2460,0.7531905,2213,0.677565275
2023-10-21 21:30:58.889,13154,236181,208875,2655,0.812894625,2212,0.6772591
2023-10-21 21:30:58.889,13155,236214,208882,2690,0.82361075,2213,0.677565275
2023-10-21 21:30:58.889,13156,236234,208885,2471,0.756558425,2218,0.67909615
2023-10-21 21:30:58.889,13157,236208,208890,2679,0.820242825,2233,0.683688775
2023-10-21 21:30:58.889,13158,236264,208920,2614,0.80034145,2254,0.69011845
2023-10-21 21:30:58.889,13159,236301,208913,2462,0.75380285,2277,0.697160475
2023-10-21 21:30:58.923,13160,236315,208922,2354,0.72073595,2308,0.7066519
2023-10-21 21:30:58.923,13161,236348,208930,2286,0.69991605,2341,0.716755675
2023-10-21 21:30:58.923,13162,236368,208937,2448,0.7495164,2369,0.725328575
2023-10-21 21:30:58.923,13163,236391,208936,2270,0.69501725,2398,0.73420765
2023-10-21 21:30:58.923,13164,236427,208944,2439,0.746760825,2431,0.744311425
2023-10-21 21:30:58.951,13165,236438,208966,2440,0.747067,2470,0.75625225
2023-10-21 21:30:58.951,13166,236453,208965,2265,0.693486375,2512,0.7691116
2023-10-21 21:30:58.951,13167,236474,208966,2455,0.751659625,2546,0.77952155
2023-10-21 21:30:58.951,13168,236495,208983,2434,0.74522995,2567,0.785951225
2023-10-21 21:30:58.951,13169,236507,208988,2282,0.69869135,2583,0.790850025
2023-10-21 21:30:58.951,13170,236533,208995,2257,0.691036975,2595,0.794524125
2023-10-21 21:30:58.951,13171,236573,209000,2367,0.724716225,2599,0.795748825
2023-10-21 21:30:58.987,13172,236590,209032,2285,0.699609875,2599,0.795748825
2023-10-21 21:30:58.987,13173,236613,209018,2491,0.762681925,2596,0.7948303
2023-10-21 21:30:58.987,13174,236636,209030,2427,0.743086725,2595,0.794524125
2023-10-21 21:30:58.987,13175,236664,209031,2080,0.636844,2599,0.795748825
2023-10-21 21:30:58.987,13176,236693,209041,2109,0.645723075,2599,0.795748825
2023-10-21 21:30:58.987,13177,236723,209066,2138,0.65460215,2586,0.79176855
2023-10-21 21:30:59.014,13178,236745,209052,2011,0.615717925,2562,0.78442035
2023-10-21 21:30:59.014,13179,236772,209088,2255,0.690424625,2534,0.77584745
2023-10-21 21:30:59.014,13180,236798,209097,2173,0.665318275,2506,0.76727455
2023-10-21 21:30:59.014,13181,236839,209104,2158,0.66072565,2485,0.760844875
2023-10-21 21:30:59.014,13182,236879,209123,2093,0.640824275,2470,0.75625225
2023-10-21 21:30:59.014,13183,236928,209132,2207,0.675728225,2459,0.752884325
2023-10-21 21:30:59.014,13184,236923,209130,2393,0.732676775,2452,0.7507411
2023-10-21 21:30:59.014,13185,236946,209138,2178,0.66684915,2441,0.747373175
2023-10-21 21:30:59.048,13186,236975,209155,2183,0.668380025,2416,0.7397188
2023-10-21 21:30:59.048,13187,237010,209146,2038,0.62398465,2386,0.73053355
2023-10-21 21:30:59.048,13188,236999,209161,1858,0.56887315,2363,0.723491525
2023-10-21 21:30:59.048,13189,236998,209161,1914,0.58601895,2354,0.72073595
2023-10-21 21:30:59.048,13190,237022,209144,2113,0.646947775,2358,0.72196065
2023-10-21 21:30:59.048,13191,236998,209151,2114,0.64725395,2368,0.7250224
2023-10-21 21:30:59.048,13192,237003,209124,1852,0.5670361,2368,0.7250224
2023-10-21 21:30:59.082,13193,236991,209137,1730,0.52968275,2353,0.720429775
2023-10-21 21:30:59.082,13194,236975,209127,1879,0.575302825,2331,0.713693925
2023-10-21 21:30:59.082,13195,236962,209119,2025,0.620004375,2302,0.70481485
2023-10-21 21:30:59.082,13196,236934,209104,2077,0.635925475,2274,0.69624195
2023-10-21 21:30:59.082,13197,236900,209093,2176,0.6662368,2253,0.689812275
2023-10-21 21:30:59.110,13198,236874,209091,1835,0.561831125,2237,0.684913475
2023-10-21 21:30:59.110,13199,236865,209071,1809,0.553870575,2222,0.68032085
2023-10-21 21:30:59.110,13200,236836,209062,1836,0.5621373,2210,0.67664675
2023-10-21 21:30:59.110,13201,236823,209061,1546,0.47334655,2200,0.673585
2023-10-21 21:30:59.110,13202,236801,209039,1714,0.52478395,2188,0.6699109
2023-10-21 21:30:59.110,13203,236771,209045,1867,0.571628725,2179,0.667155325
2023-10-21 21:30:59.110,13204,236782,209040,1905,0.583263375,2171,0.664705925
2023-10-21 21:30:59.139,13205,236759,209038,1826,0.55907555,2159,0.661031825
2023-10-21 21:30:59.139,13206,236745,209032,1940,0.5939795,2148,0.6576639
2023-10-21 21:30:59.139,13207,236766,209033,1750,0.53580625,2139,0.654908325
2023-10-21 21:30:59.139,13208,236772,209036,1587,0.485899725,2129,0.651846575
2023-10-21 21:30:59.139,13209,236765,209037,1696,0.5192728,2112,0.6466416
2023-10-21 21:30:59.139,13210,236761,209039,1778,0.54437915,2086,0.63868105
2023-10-21 21:30:59.172,13211,236759,209039,1864,0.5707102,2056,0.6294958
2023-10-21 21:30:59.172,13212,236788,209054,1426,0.43660555,2027,0.620616725
2023-10-21 21:30:59.172,13213,236795,209033,1499,0.458956325,2005,0.613880875
2023-10-21 21:30:59.172,13214,236821,209043,1760,0.538868,1990,0.60928825
2023-10-21 21:30:59.172,13215,236824,209064,1775,0.543460625,1975,0.604695625
2023-10-21 21:30:59.172,13216,236849,209061,1613,0.493860275,1963,0.601021525
2023-10-21 21:30:59.172,13217,236854,209064,1739,0.532438325,1953,0.597959775
2023-10-21 21:30:59.172,13218,236871,209087,1690,0.51743575,1934,0.59214245
2023-10-21 21:30:59.172,13219,236904,209087,1600,0.48988,1909,0.584488075
2023-10-21 21:30:59.205,13220,236938,209087,1632,0.4996776,1891,0.578976925
2023-10-21 21:30:59.205,13221,236954,209097,1517,0.464467475,1881,0.575915175
2023-10-21 21:30:59.205,13222,236950,209107,1560,0.477633,1872,0.5731596
2023-10-21 21:30:59.205,13223,236994,209126,1980,0.6062265,1862,0.57009785
2023-10-21 21:30:59.205,13224,237030,209127,2106,0.64480455,1849,0.566117575
2023-10-21 21:30:59.205,13225,237053,209140,1594,0.48804295,1830,0.56030025
