Time, Sample Count, IR Count, Red Count, Raw ECG, Raw ECG (mV), Filtered ECG, Filtered ECG (mV)
2023-11-10 13:33:47.161,6172,223131,174283,-5330,-1.63191275,-5496,-1.6827378
2023-11-10 13:33:47.190,6173,223031,174242,-7284,-2.2301787,-5541,-1.696515675
2023-11-10 13:33:47.219,6174,222924,174204,-4895,-1.498726625,-5545,-1.697740375
2023-11-10 13:33:47.219,6175,222776,174136,-4457,-1.364621975,-5491,-1.681206925
2023-11-10 13:33:47.219,6176,222644,174082,-7025,-2.150879375,-5484,-1.6790637
2023-11-10 13:33:47.219,6177,222498,174030,-5686,-1.74091105,-5499,-1.683656325
2023-11-10 13:33:47.253,6178,222335,173976,-4147,-1.269707725,-5468,-1.6741649
2023-11-10 13:33:47.253,6179,222174,173920,-6364,-1.9484977,-5464,-1.6729402
2023-11-10 13:33:47.253,6180,222015,173859,-6737,-2.062700975,-5500,-1.6839625
2023-11-10 13:33:47.253,6181,221852,173811,-4249,-1.300937575,-5482,-1.67845135
2023-11-10 13:33:47.253,6182,221688,173748,-5406,-1.65518205,-5444,-1.6668167
2023-11-10 13:33:47.281,6183,221531,173697,-7093,-2.171699275,-5459,-1.671409325
2023-11-10 13:33:47.281,6184,221405,173644,-4712,-1.4426966,-5456,-1.6704908
2023-11-10 13:33:47.281,6185,221292,173599,-4350,-1.33186125,-5423,-1.660387025
2023-11-10 13:33:47.281,6186,221161,173557,-6837,-2.093318475,-5443,-1.666510525
2023-11-10 13:33:47.281,6187,221078,173522,-5369,-1.643853575,-5473,-1.675695775
2023-11-10 13:33:47.281,6188,220997,173488,-3438,-1.05262965,-5445,-1.667122875
2023-11-10 13:33:47.281,6189,220909,173450,-5836,-1.7868373,-5440,-1.665592
2023-11-10 13:33:47.281,6190,220861,173443,-5945,-1.820210375,-5479,-1.677532825
2023-11-10 13:33:47.319,6191,220791,173437,-3377,-1.033952975,-5476,-1.6766143
2023-11-10 13:33:47.319,6192,220756,173417,-4496,-1.3765628,-5464,-1.6729402
2023-11-10 13:33:47.319,6193,220742,173420,-6200,-1.898285,-5513,-1.687942775
2023-11-10 13:33:47.319,6194,220725,173408,-3785,-1.158872375,-5547,-1.698352725
2023-11-10 13:33:47.319,6195,220742,173407,-3421,-1.047424675,-5540,-1.6962095
2023-11-10 13:33:47.319,6196,220720,173400,-6117,-1.872872475,-5572,-1.7060071
2023-11-10 13:33:47.319,6197,220745,173403,-4836,-1.4806623,-5604,-1.7158047
2023-11-10 13:33:47.319,6198,220753,173406,-2969,-0.909033575,-5579,-1.708150325
2023-11-10 13:33:47.348,6199,220751,173432,-5198,-1.59149765,-5580,-1.7084565
2023-11-10 13:33:47.348,6200,220766,173411,-5585,-1.709987375,-5626,-1.72254055
2023-11-10 13:33:47.348,6201,220774,173435,-3115,-0.953735125,-5624,-1.7219282
2023-11-10 13:33:47.348,6202,220784,173431,-4344,-1.3300242,-5601,-1.714886175
2023-11-10 13:33:47.348,6203,220788,173450,-6016,-1.8419488,-5619,-1.720397325
2023-11-10 13:33:47.348,6204,220814,173442,-3811,-1.166832925,-5595,-1.713049125
2023-11-10 13:33:47.377,6205,220805,173444,-3460,-1.0593655,-5513,-1.687942775
2023-11-10 13:33:47.377,6206,220820,173438,-5959,-1.824496825,-5470,-1.67477725
2023-11-10 13:33:47.377,6207,220835,173434,-4636,-1.4194273,-5439,-1.665285825
2023-11-10 13:33:47.377,6208,220817,173441,-2893,-0.885764275,-5353,-1.638954775
2023-11-10 13:33:47.377,6209,220823,173433,-5258,-1.60986815,-5279,-1.616297825
2023-11-10 13:33:47.377,6210,220803,173424,-5531,-1.693453925,-5231,-1.601601425
2023-11-10 13:33:47.377,6211,220799,173416,-3071,-0.940263425,-5122,-1.56822835
2023-11-10 13:33:47.377,6212,220814,173418,-4205,-1.287465875,-4996,-1.5296503
2023-11-10 13:33:47.377,6213,220803,173417,-5977,-1.830007975,-4934,-1.51066745
2023-11-10 13:33:47.405,6214,220788,173399,-3689,-1.129479575,-4866,-1.48984755
2023-11-10 13:33:47.405,6215,220797,173409,-3380,-1.0348715,-4772,-1.4610671
2023-11-10 13:33:47.405,6216,220801,173413,-5967,-1.826946225,-4733,-1.449126275
2023-11-10 13:33:47.405,6217,220827,173416,-4787,-1.465659725,-4708,-1.4414719
2023-11-10 13:33:47.405,6218,220795,173421,-2948,-0.9026039,-4632,-1.4182026
2023-11-10 13:33:47.405,6219,220834,173419,-5132,-1.5712901,-4584,-1.4035062
2023-11-10 13:33:47.405,6220,220836,173417,-5522,-1.69069835,-4587,-1.404424725
2023-11-10 13:33:47.405,6221,220839,173425,-3103,-0.950061025,-4558,-1.39554565
2023-11-10 13:33:47.438,6222,220834,173418,-4258,-1.30369315,-4531,-1.387278925
2023-11-10 13:33:47.438,6223,220855,173418,-6101,-1.867973675,-4561,-1.396464175
2023-11-10 13:33:47.438,6224,220844,173412,-3815,-1.168057625,-4563,-1.397076525
2023-11-10 13:33:47.438,6225,220847,173401,-3155,-0.965982125,-4517,-1.382992475
2023-11-10 13:33:47.438,6226,220854,173414,-5833,-1.785918775,-4518,-1.38329865
2023-11-10 13:33:47.438,6227,220825,173401,-4663,-1.427694025,-4535,-1.388503625
2023-11-10 13:33:47.471,6228,220813,173388,-2898,-0.88729515,-4502,-1.37839985
2023-11-10 13:33:47.471,6229,220823,173402,-5090,-1.55843075,-4490,-1.37472575
2023-11-10 13:33:47.471,6230,220811,173382,-5496,-1.6827378,-4518,-1.38329865
2023-11-10 13:33:47.471,6231,220802,173383,-2925,-0.895561875,-4500,-1.3777875
2023-11-10 13:33:47.471,6232,220789,173382,-4004,-1.2259247,-4469,-1.368296075
2023-11-10 13:33:47.471,6233,220776,173380,-5944,-1.8199042,-4492,-1.3753381
2023-11-10 13:33:47.471,6234,220766,173359,-3662,-1.12121285,-4496,-1.3765628
2023-11-10 13:33:47.500,6235,220769,173369,-3149,-0.964145075,-4462,-1.36615285
2023-11-10 13:33:47.500,6236,220747,173361,-5774,-1.76785445,-4475,-1.370133125
2023-11-10 13:33:47.500,6237,220753,173352,-4558,-1.39554565,-4502,-1.37839985
2023-11-10 13:33:47.500,6238,220753,173356,-2626,-0.80401555,-4476,-1.3704393
2023-11-10 13:33:47.500,6239,220767,173368,-4958,-1.51801565,-4471,-1.368908425
2023-11-10 13:33:47.500,6240,220757,173359,-5321,-1.629157175,-4508,-1.3802369
2023-11-10 13:33:47.500,6241,220753,173368,-2910,-0.89096925,-4498,-1.37717515
2023-11-10 13:33:47.534,6242,220753,173360,-3950,-1.20939125,-4471,-1.368908425
2023-11-10 13:33:47.534,6243,220744,173362,-5794,-1.77397795,-4496,-1.3765628
2023-11-10 13:33:47.534,6244,220754,173373,-3561,-1.090289175,-4501,-1.378093675
2023-11-10 13:33:47.534,6245,220765,173366,-3073,-0.940875775,-4462,-1.36615285
2023-11-10 13:33:47.534,6246,220771,173363,-5576,-1.7072318,-4465,-1.367071375
2023-11-10 13:33:47.534,6247,220765,173355,-4408,-1.3496194,-4479,-1.371357825
2023-11-10 13:33:47.564,6248,220780,173352,-2710,-0.82973425,-4437,-1.358498475
2023-11-10 13:33:47.564,6249,220772,173356,-4901,-1.500563675,-4414,-1.35145645
2023-11-10 13:33:47.564,6250,220803,173368,-5239,-1.604050825,-4436,-1.3581923
2023-11-10 13:33:47.564,6251,220817,173364,-2813,-0.861270275,-4413,-1.351150275
2023-11-10 13:33:47.564,6252,220840,173367,-3932,-1.2038801,-4375,-1.339515625
2023-11-10 13:33:47.564,6253,220858,173385,-5791,-1.773059425,-4392,-1.3447206
2023-11-10 13:33:47.564,6254,220894,173381,-3496,-1.0703878,-4388,-1.3434959
2023-11-10 13:33:47.594,6255,220911,173405,-2949,-0.902910075,-4338,-1.32818715
2023-11-10 13:33:47.594,6256,220961,173399,-5480,-1.677839,-4334,-1.32696245
2023-11-10 13:33:47.594,6257,220987,173400,-4373,-1.338903275,-4348,-1.3312489
2023-11-10 13:33:47.594,6258,221011,173436,-2499,-0.765131325,-4311,-1.319920425
2023-11-10 13:33:47.594,6259,221024,173436,-4729,-1.447901575,-4292,-1.3141031
2023-11-10 13:33:47.594,6260,221078,173450,-5210,-1.59517175,-4315,-1.321145125
2023-11-10 13:33:47.626,6261,221115,173454,-2599,-0.795748825,-4290,-1.31349075
2023-11-10 13:33:47.626,6262,221141,173473,-3615,-1.106822625,-4252,-1.3018561
2023-11-10 13:33:47.626,6263,221191,173485,-5533,-1.694066275,-4270,-1.30736725
2023-11-10 13:33:47.626,6264,221208,173499,-3488,-1.0679384,-4270,-1.30736725
2023-11-10 13:33:47.626,6265,221265,173511,-3023,-0.925567025,-4229,-1.294814075
2023-11-10 13:33:47.626,6266,221297,173523,-5491,-1.681206925,-4233,-1.296038775
2023-11-10 13:33:47.626,6267,221330,173529,-4405,-1.348700875,-4249,-1.300937575
2023-11-10 13:33:47.626,6268,221348,173539,-2408,-0.7372694,-4213,-1.289915275
2023-11-10 13:33:47.655,6269,221374,173545,-4546,-1.39187155,-4199,-1.285628825
2023-11-10 13:33:47.655,6270,221411,173564,-5020,-1.5369985,-4231,-1.295426425
2023-11-10 13:33:47.655,6271,221442,173572,-2556,-0.7825833,-4219,-1.291752325
2023-11-10 13:33:47.655,6272,221463,173573,-3615,-1.106822625,-4188,-1.2822609
2023-11-10 13:33:47.655,6273,221494,173582,-5461,-1.672021675,-4205,-1.287465875
2023-11-10 13:33:47.655,6274,221501,173595,-3338,-1.02201215,-4202,-1.28654735
2023-11-10 13:33:47.655,6275,221548,173602,-2809,-0.860045575,-4158,-1.27307565
2023-11-10 13:33:47.692,6276,221552,173616,-5143,-1.574658025,-4157,-1.272769475
2023-11-10 13:33:47.692,6277,221576,173629,-4238,-1.29756965,-4170,-1.27674975
2023-11-10 13:33:47.692,6278,221581,173622,-2599,-0.795748825,-4129,-1.264196575
2023-11-10 13:33:47.692,6279,221630,173629,-4660,-1.4267755,-4103,-1.256236025
2023-11-10 13:33:47.692,6280,221617,173617,-4888,-1.4965834,-4116,-1.2602163
2023-11-10 13:33:47.692,6281,221639,173636,-2581,-0.790237675,-4088,-1.2516434
2023-11-10 13:33:47.692,6282,221652,173623,-3555,-1.088452125,-4051,-1.240314925
2023-11-10 13:33:47.692,6283,221672,173639,-5213,-1.596090275,-4074,-1.24735695
2023-11-10 13:33:47.692,6284,221680,173650,-3172,-0.9711871,-4081,-1.249500175
2023-11-10 13:33:47.718,6285,221720,173654,-2739,-0.838613325,-4045,-1.238477875
2023-11-10 13:33:47.718,6286,221726,173652,-4922,-1.50699335,-4050,-1.24000875
2023-11-10 13:33:47.718,6287,221753,173663,-3915,-1.198675125,-4068,-1.2455199
2023-11-10 13:33:47.718,6288,221753,173665,-2288,-0.7005284,-4029,-1.233579075
2023-11-10 13:33:47.718,6289,221770,173661,-4236,-1.2969573,-4007,-1.226843225
2023-11-10 13:33:47.718,6290,221804,173671,-4728,-1.4475954,-4029,-1.233579075
2023-11-10 13:33:47.718,6291,221819,173669,-2620,-0.8021785,-4010,-1.22776175
2023-11-10 13:33:47.751,6292,221827,173677,-3655,-1.119069625,-3975,-1.217045625
2023-11-10 13:33:47.751,6293,221852,173682,-5687,-1.741217225,-3989,-1.221332075
2023-11-10 13:33:47.751,6294,221870,173685,-4049,-1.239702575,-3985,-1.220107375
2023-11-10 13:33:47.751,6295,221879,173690,-3961,-1.212759175,-3943,-1.207248025
2023-11-10 13:33:47.751,6296,221881,173696,-6650,-2.03606375,-3945,-1.207860375
2023-11-10 13:33:47.751,6297,221903,173715,-5405,-1.654875875,-3960,-1.212453
2023-11-10 13:33:47.788,6298,221905,173710,-2973,-0.910258275,-3925,-1.201736875
2023-11-10 13:33:47.788,6299,221953,173716,-4030,-1.23388525,-3913,-1.198062775
2023-11-10 13:33:47.788,6300,221967,173713,-3855,-1.180304625,-3944,-1.2075542
2023-11-10 13:33:47.788,6301,221990,173729,-1794,-0.54927795,-3930,-1.20326775
2023-11-10 13:33:47.788,6302,221994,173741,-2728,-0.8352454,-3894,-1.19224545
2023-11-10 13:33:47.813,6303,222037,173750,-4404,-1.3483947,-3898,-1.19347015
2023-11-10 13:33:47.813,6304,222075,173754,-2980,-0.9124015,-3881,-1.188265175
2023-11-10 13:33:47.813,6305,222080,173754,-2714,-0.83095895,-3824,-1.1708132
2023-11-10 13:33:47.813,6306,222081,173764,-4781,-1.463822675,-3808,-1.1659144
2023-11-10 13:33:47.813,6307,222117,173779,-3912,-1.1977566,-3807,-1.165608225
2023-11-10 13:33:47.813,6308,222147,173781,-2513,-0.769417775,-3766,-1.15305505
2023-11-10 13:33:47.842,6309,222172,173775,-4420,-1.3532935,-3752,-1.1487686
2023-11-10 13:33:47.842,6310,222191,173803,-4788,-1.4659659,-3792,-1.1610156
2023-11-10 13:33:47.842,6311,222230,173806,-2787,-0.853309725,-3818,-1.16897615
2023-11-10 13:33:47.842,6312,222221,173808,-3658,-1.11998815,-3867,-1.183978725
2023-11-10 13:33:47.842,6313,222261,173815,-5247,-1.606500225,-4002,-1.22531235
2023-11-10 13:33:47.842,6314,222290,173824,-3497,-1.070693975,-4141,-1.267870675
2023-11-10 13:33:47.876,6315,222295,173824,-3061,-0.937201675,-4227,-1.294201725
2023-11-10 13:33:47.876,6316,222312,173823,-5077,-1.554450475,-4304,-1.3177772
2023-11-10 13:33:47.876,6317,222346,173836,-4096,-1.2540928,-4338,-1.32818715
2023-11-10 13:33:47.876,6318,222346,173834,-2599,-0.795748825,-4279,-1.310122825
2023-11-10 13:33:47.876,6319,222363,173845,-4278,-1.30981665,-4202,-1.28654735
2023-11-10 13:33:47.907,6320,222391,173852,-4843,-1.482805525,-4139,-1.267258325
2023-11-10 13:33:47.907,6321,222407,173851,-3035,-0.929241125,-4031,-1.234191425
2023-11-10 13:33:47.907,6322,222422,173866,-3857,-1.180916975,-3913,-1.198062775
2023-11-10 13:33:47.907,6323,222446,173865,-5526,-1.69192305,-3839,-1.175405825
2023-11-10 13:33:47.907,6324,222471,173885,-3755,-1.149687125,-3738,-1.14448215
2023-11-10 13:33:47.907,6325,222506,173874,-3299,-1.010071325,-3599,-1.101923825
2023-11-10 13:33:47.937,6326,222523,173893,-5386,-1.64905855,-3514,-1.07589895
2023-11-10 13:33:47.937,6327,222549,173891,-4499,-1.377481325,-3480,-1.065489
2023-11-10 13:33:47.937,6328,222570,173914,-3111,-0.952510425,-3451,-1.056609925
2023-11-10 13:33:47.937,6329,222594,173915,-4959,-1.518321825,-3487,-1.067632225
2023-11-10 13:33:47.937,6330,222615,173925,-5345,-1.636505375,-3603,-1.103148525
2023-11-10 13:33:47.937,6331,222646,173907,-3361,-1.029054175,-3709,-1.135603075
2023-11-10 13:33:47.970,6332,222644,173923,-4171,-1.277055925,-3794,-1.16162795
2023-11-10 13:33:47.970,6333,222636,173914,-5614,-1.71886645,-3889,-1.190714575
2023-11-10 13:33:47.970,6334,222605,173907,-3968,-1.2149024,-3928,-1.2026554
2023-11-10 13:33:47.970,6335,222563,173878,-3420,-1.0471185,-3904,-1.1953072
2023-11-10 13:33:47.970,6336,222499,173855,-5556,-1.7011083,-3903,-1.195001025
2023-11-10 13:33:47.970,6337,222416,173818,-4495,-1.376256625,-3924,-1.2014307
2023-11-10 13:33:47.970,6338,222290,173776,-3034,-0.92893495,-3919,-1.199899825
2023-11-10 13:33:48.006,6339,222169,173712,-5040,-1.543122,-3940,-1.2063295
2023-11-10 13:33:48.006,6340,222014,173669,-5464,-1.6729402,-3994,-1.22286295
2023-11-10 13:33:48.006,6341,221890,173604,-3478,-1.06487665,-4006,-1.22653705
2023-11-10 13:33:48.006,6342,221743,173548,-4126,-1.26327805,-4001,-1.225006175
2023-11-10 13:33:48.006,6343,221580,173496,-5894,-1.80459545,-4042,-1.23755935
2023-11-10 13:33:48.006,6344,221417,173429,-4187,-1.281954725,-4078,-1.24858165
2023-11-10 13:33:48.006,6345,221269,173375,-3610,-1.10529175,-4092,-1.2528681
2023-11-10 13:33:48.031,6346,221117,173332,-5630,-1.72376525,-4149,-1.270320075
2023-11-10 13:33:48.031,6347,220985,173269,-4859,-1.487704325,-4220,-1.2920585
2023-11-10 13:33:48.031,6348,220866,173232,-3294,-1.00854045,-4245,-1.299712875
2023-11-10 13:33:48.031,6349,220755,173188,-4841,-1.482193175,-4278,-1.30981665
2023-11-10 13:33:48.064,6350,220652,173151,-5370,-1.64415975,-4341,-1.329105675
2023-11-10 13:33:48.064,6351,220546,173124,-3373,-1.032728275,-4363,-1.335841525
2023-11-10 13:33:48.064,6352,220488,173094,-4132,-1.2651151,-4365,-1.336453875
2023-11-10 13:33:48.064,6353,220420,173067,-5494,-1.68212545,-4401,-1.347476175
2023-11-10 13:33:48.064,6354,220368,173060,-3686,-1.12856105,-4413,-1.351150275
2023-11-10 13:33:48.064,6355,220327,173042,-3065,-0.938426375,-4386,-1.34288355
2023-11-10 13:33:48.064,6356,220301,173029,-5081,-1.555675175,-4399,-1.346863825
2023-11-10 13:33:48.094,6357,220279,173030,-4223,-1.292977025,-4430,-1.35635525
2023-11-10 13:33:48.094,6358,220267,173033,-2534,-0.77584745,-4419,-1.352987325
2023-11-10 13:33:48.094,6359,220243,172989,-4099,-1.255011325,-4419,-1.352987325
2023-11-10 13:33:48.094,6360,220264,173020,-4649,-1.423407575,-4456,-1.3643158
2023-11-10 13:33:48.094,6361,220267,173005,-2601,-0.796361175,-4462,-1.36615285
2023-11-10 13:33:48.094,6362,220260,173013,-3407,-1.043138225,-4457,-1.364621975
2023-11-10 13:33:48.129,6363,220277,172998,-4835,-1.480356125,-4494,-1.37595045
2023-11-10 13:33:48.129,6364,220281,173005,-3050,-0.93383375,-4518,-1.38329865
2023-11-10 13:33:48.129,6365,220296,173015,-2684,-0.8217737,-4510,-1.38084925
2023-11-10 13:33:48.129,6366,220316,173025,-4619,-1.414222325,-4532,-1.3875851
2023-11-10 13:33:48.129,6367,220322,173017,-3653,-1.118457275,-4560,-1.396158
2023-11-10 13:33:48.129,6368,220331,173032,-2178,-0.66684915,-4538,-1.38942215
2023-11-10 13:33:48.129,6369,220339,173018,-4040,-1.236947,-4524,-1.3851357
2023-11-10 13:33:48.129,6370,220326,173025,-4550,-1.39309625,-4537,-1.389115975
2023-11-10 13:33:48.129,6371,220331,173030,-2483,-0.760232525,-4502,-1.37839985
2023-11-10 13:33:48.156,6372,220327,173019,-3283,-1.005172525,-4438,-1.35880465
2023-11-10 13:33:48.156,6373,220328,173011,-4882,-1.49474635,-4410,-1.35023175
2023-11-10 13:33:48.156,6374,220307,173011,-3144,-0.9626142,-4366,-1.33676005
2023-11-10 13:33:48.156,6375,220301,172992,-2709,-0.829428075,-4278,-1.30981665
2023-11-10 13:33:48.156,6376,220287,172992,-4619,-1.414222325,-4215,-1.290527625
2023-11-10 13:33:48.156,6377,220257,172978,-3705,-1.134378375,-4163,-1.274606525
2023-11-10 13:33:48.156,6378,220229,172979,-2557,-0.782889475,-4069,-1.245826075
2023-11-10 13:33:48.189,6379,220244,172966,-4147,-1.269707725,-3988,-1.2210259
2023-11-10 13:33:48.189,6380,220205,172968,-4396,-1.3459453,-3944,-1.2075542
2023-11-10 13:33:48.189,6381,220209,172957,-2499,-0.765131325,-3870,-1.18489725
2023-11-10 13:33:48.189,6382,220223,172957,-3380,-1.0348715,-3790,-1.16040325
2023-11-10 13:33:48.189,6383,220225,172952,-4756,-1.4561683,-3758,-1.15060565
2023-11-10 13:33:48.218,6384,220217,172966,-3010,-0.92158675,-3712,-1.1365216
2023-11-10 13:33:48.218,6385,220210,172958,-2820,-0.8634135,-3634,-1.11263995
2023-11-10 13:33:48.218,6386,220228,172965,-4733,-1.449126275,-3603,-1.103148525
2023-11-10 13:33:48.218,6387,220236,172953,-3850,-1.17877375,-3603,-1.103148525
2023-11-10 13:33:48.218,6388,220250,172960,-2412,-0.7384941,-3569,-1.092738575
2023-11-10 13:33:48.218,6389,220240,172972,-3946,-1.20816655,-3552,-1.0875336
2023-11-10 13:33:48.218,6390,220265,172969,-4350,-1.33186125,-3572,-1.0936571
2023-11-10 13:33:48.218,6391,220274,172970,-2484,-0.7605387,-3562,-1.09059535
2023-11-10 13:33:48.251,6392,220282,172972,-3184,-0.9748612,-3544,-1.0850842
2023-11-10 13:33:48.251,6393,220287,172954,-4684,-1.4341237,-3566,-1.09182005
2023-11-10 13:33:48.251,6394,220291,172959,-3167,-0.969656225,-3575,-1.094575625
2023-11-10 13:33:48.251,6395,220294,172959,-2665,-0.815956375,-3558,-1.08937065
2023-11-10 13:33:48.251,6396,220282,172974,-4471,-1.368908425,-3582,-1.09671885
2023-11-10 13:33:48.251,6397,220294,172941,-3741,-1.145400675,-3613,-1.106210275
2023-11-10 13:33:48.281,6398,220273,172946,-2408,-0.7372694,-3596,-1.1010053
2023-11-10 13:33:48.281,6399,220264,172941,-4106,-1.25715455,-3592,-1.0997806
2023-11-10 13:33:48.281,6400,220279,172943,-4426,-1.35513055,-3622,-1.10896585
2023-11-10 13:33:48.281,6401,220265,172945,-2546,-0.77952155,-3612,-1.1059041
2023-11-10 13:33:48.281,6402,220277,172938,-3322,-1.01711335,-3588,-1.0985559
2023-11-10 13:33:48.318,6403,220267,172934,-4693,-1.436879275,-3607,-1.104373225
2023-11-10 13:33:48.318,6404,220283,172930,-3108,-0.9515919,-3616,-1.1071288
2023-11-10 13:33:48.318,6405,220276,172930,-2759,-0.844736825,-3594,-1.10039295
2023-11-10 13:33:48.318,6406,220280,172931,-4396,-1.3459453,-3601,-1.102536175
2023-11-10 13:33:48.318,6407,220259,172951,-3707,-1.134990725,-3615,-1.106822625
2023-11-10 13:33:48.318,6408,220303,172934,-2592,-0.7936056,-3588,-1.0985559
2023-11-10 13:33:48.350,6409,220300,172934,-3984,-1.2198012,-3571,-1.093350925
2023-11-10 13:33:48.350,6410,220306,172926,-4316,-1.3214513,-3583,-1.097025025
2023-11-10 13:33:48.350,6411,220300,172959,-2367,-0.724716225,-3567,-1.092126225
2023-11-10 13:33:48.350,6412,220315,172948,-3115,-0.953735125,-3543,-1.084778025
2023-11-10 13:33:48.350,6413,220324,172952,-4716,-1.4439213,-3559,-1.089676825
2023-11-10 13:33:48.350,6414,220346,172939,-3191,-0.977004425,-3559,-1.089676825
2023-11-10 13:33:48.376,6415,220359,172953,-2647,-0.810445225,-3528,-1.0801854
2023-11-10 13:33:48.376,6416,220371,172956,-4504,-1.3790122,-3532,-1.0814101
2023-11-10 13:33:48.376,6417,220374,172962,-3732,-1.1426451,-3548,-1.0863089
2023-11-10 13:33:48.376,6418,220400,172959,-2295,-0.702671625,-3527,-1.079879225
2023-11-10 13:33:48.376,6419,220417,172954,-3777,-1.156422975,-3524,-1.0789607
2023-11-10 13:33:48.409,6420,220440,172967,-4438,-1.35880465,-3559,-1.089676825
2023-11-10 13:33:48.409,6421,220426,172964,-2517,-0.770642475,-3564,-1.0912077
2023-11-10 13:33:48.409,6422,220470,172971,-3244,-0.9932317,-3553,-1.087839775
2023-11-10 13:33:48.409,6423,220471,172974,-4627,-1.416671725,-3571,-1.093350925
2023-11-10 13:33:48.409,6424,220512,172975,-2990,-0.91546325,-3574,-1.09426945
2023-11-10 13:33:48.409,6425,220519,172998,-2544,-0.7789092,-3549,-1.086615075
2023-11-10 13:33:48.438,6426,220550,172993,-4519,-1.383604825,-3556,-1.0887583
2023-11-10 13:33:48.438,6427,220553,172989,-3685,-1.128254875,-3572,-1.0936571
2023-11-10 13:33:48.438,6428,220585,173010,-2220,-0.6797085,-3546,-1.08569655
2023-11-10 13:33:48.438,6429,220596,173018,-3839,-1.175405825,-3529,-1.080491575
2023-11-10 13:33:48.438,6430,220632,173020,-4299,-1.316246325,-3546,-1.08569655
2023-11-10 13:33:48.438,6431,220665,173046,-2413,-0.738800275,-3532,-1.0814101
2023-11-10 13:33:48.475,6432,220684,173025,-3003,-0.919443525,-3504,-1.0728372
2023-11-10 13:33:48.475,6433,220688,173043,-4553,-1.394014775,-3517,-1.076817475
2023-11-10 13:33:48.475,6434,220724,173048,-3101,-0.949448675,-3524,-1.0789607
2023-11-10 13:33:48.475,6435,220745,173065,-2525,-0.773091875,-3502,-1.07222485
2023-11-10 13:33:48.475,6436,220786,173060,-4407,-1.349313225,-3505,-1.073143375
2023-11-10 13:33:48.475,6437,220795,173075,-3711,-1.136215425,-3516,-1.0765113
2023-11-10 13:33:48.475,6438,220820,173080,-2273,-0.695935775,-3490,-1.06855075
2023-11-10 13:33:48.500,6439,220840,173084,-3949,-1.209085075,-3480,-1.065489
2023-11-10 13:33:48.500,6440,220869,173099,-4267,-1.306448725,-3505,-1.073143375
2023-11-10 13:33:48.500,6441,220861,173103,-2340,-0.7164495,-3498,-1.07100015
2023-11-10 13:33:48.500,6442,220901,173108,-3136,-0.9601648,-3478,-1.06487665
2023-11-10 13:33:48.500,6443,220914,173105,-4559,-1.395851825,-3498,-1.07100015
2023-11-10 13:33:48.500,6444,220924,173116,-2952,-0.9038286,-3502,-1.07222485
2023-11-10 13:33:48.500,6445,220941,173122,-2489,-0.762069575,-3467,-1.061508725
2023-11-10 13:33:48.537,6446,220976,173117,-4478,-1.37105165,-3461,-1.059671675
2023-11-10 13:33:48.537,6447,220968,173131,-3616,-1.1071288,-3472,-1.0630396
2023-11-10 13:33:48.537,6448,220987,173140,-2266,-0.69379255,-3446,-1.05507905
2023-11-10 13:33:48.537,6449,220999,173136,-3827,-1.171731725,-3432,-1.0507926
2023-11-10 13:33:48.537,6450,221006,173131,-4123,-1.262359525,-3452,-1.0569161
2023-11-10 13:33:48.537,6451,221023,173144,-2331,-0.713693925,-3441,-1.053548175
2023-11-10 13:33:48.562,6452,221046,173144,-3197,-0.978841475,-3416,-1.0458938
2023-11-10 13:33:48.562,6453,221047,173149,-4778,-1.46290415,-3427,-1.049261725
2023-11-10 13:33:48.562,6454,221082,173155,-3120,-0.955266,-3427,-1.049261725
2023-11-10 13:33:48.562,6455,221075,173164,-2597,-0.795136475,-3401,-1.041301175
2023-11-10 13:33:48.562,6456,221107,173171,-4349,-1.331555075,-3415,-1.045587625
2023-11-10 13:33:48.562,6457,221128,173175,-3657,-1.119681975,-3443,-1.054160525
2023-11-10 13:33:48.562,6458,221141,173177,-2341,-0.716755675,-3425,-1.048649375
2023-11-10 13:33:48.595,6459,221152,173183,-3871,-1.185203425,-3414,-1.04528145
2023-11-10 13:33:48.595,6460,221174,173187,-4252,-1.3018561,-3438,-1.05262965
2023-11-10 13:33:48.595,6461,221208,173202,-2338,-0.71583715,-3430,-1.05018025
2023-11-10 13:33:48.595,6462,221226,173207,-3049,-0.933527575,-3408,-1.0434444
2023-11-10 13:33:48.595,6463,221227,173209,-4521,-1.384217175,-3428,-1.0495679
2023-11-10 13:33:48.595,6464,221259,173206,-2772,-0.8487171,-3436,-1.0520173
2023-11-10 13:33:48.625,6465,221277,173232,-2317,-0.709407475,-3410,-1.04405675
2023-11-10 13:33:48.625,6466,221294,173228,-4425,-1.354824375,-3411,-1.044362925
2023-11-10 13:33:48.625,6467,221325,173252,-3622,-1.10896585,-3419,-1.046812325
2023-11-10 13:33:48.625,6468,221343,173247,-2065,-0.632251375,-3389,-1.037627075
2023-11-10 13:33:48.625,6469,221372,173256,-3678,-1.12611165,-3378,-1.03425915
2023-11-10 13:33:48.658,6470,221381,173253,-4250,-1.30124375,-3410,-1.04405675
2023-11-10 13:33:48.658,6471,221404,173270,-2354,-0.72073595,-3414,-1.04528145
2023-11-10 13:33:48.658,6472,221424,173280,-3083,-0.943937525,-3406,-1.04283205
2023-11-10 13:33:48.658,6473,221422,173286,-4642,-1.42126435,-3433,-1.051098775
2023-11-10 13:33:48.658,6474,221454,173279,-3046,-0.93260905,-3447,-1.055385225
2023-11-10 13:33:48.658,6475,221475,173287,-3043,-0.931690525,-3427,-1.049261725
2023-11-10 13:33:48.658,6476,221503,173296,-5272,-1.6141546,-3437,-1.052323475
2023-11-10 13:33:48.687,6477,221534,173314,-4839,-1.481580825,-3456,-1.0581408
2023-11-10 13:33:48.687,6478,221556,173326,-3860,-1.1818355,-3435,-1.051711125
2023-11-10 13:33:48.687,6479,221591,173321,-5305,-1.624258375,-3428,-1.0495679
2023-11-10 13:33:48.687,6480,221609,173340,-5003,-1.531793525,-3451,-1.056609925
2023-11-10 13:33:48.687,6481,221637,173350,-2339,-0.716143325,-3433,-1.051098775
2023-11-10 13:33:48.687,6482,221682,173353,-2313,-0.708182775,-3393,-1.038851775
2023-11-10 13:33:48.718,6483,221686,173373,-3856,-1.1806108,-3392,-1.0385456
2023-11-10 13:33:48.718,6484,221711,173378,-2202,-0.67419735,-3382,-1.03548385
2023-11-10 13:33:48.718,6485,221741,173378,-1912,-0.5854066,-3339,-1.022318325
2023-11-10 13:33:48.718,6486,221760,173395,-4011,-1.228067925,-3329,-1.019256575
2023-11-10 13:33:48.718,6487,221784,173406,-3417,-1.046199975,-3339,-1.022318325
2023-11-10 13:33:48.756,6488,221812,173404,-1952,-0.5976536,-3316,-1.0152763
2023-11-10 13:33:48.756,6489,221825,173410,-3527,-1.079879225,-3310,-1.01343925
2023-11-10 13:33:48.756,6490,221831,173416,-4005,-1.226230875,-3337,-1.021705975
2023-11-10 13:33:48.756,6491,221848,173420,-2219,-0.679402325,-3338,-1.02201215
2023-11-10 13:33:48.756,6492,221861,173425,-2855,-0.874129625,-3345,-1.024155375
2023-11-10 13:33:48.756,6493,221884,173421,-4318,-1.32206365,-3422,-1.04773085
2023-11-10 13:33:48.780,6494,221918,173434,-2768,-0.8474924,-3518,-1.07712365
2023-11-10 13:33:48.780,6495,221939,173428,-2375,-0.727165625,-3610,-1.10529175
2023-11-10 13:33:48.780,6496,221949,173459,-4262,-1.30491785,-3752,-1.1487686
2023-11-10 13:33:48.780,6497,221978,173464,-3432,-1.0507926,-3893,-1.191939275
2023-11-10 13:33:48.780,6498,222002,173463,-2051,-0.627964925,-3952,-1.2100036
2023-11-10 13:33:48.780,6499,222040,173474,-3652,-1.1181511,-3967,-1.214596225
2023-11-10 13:33:48.813,6500,222039,173479,-4068,-1.2455199,-3968,-1.2149024
2023-11-10 13:33:48.813,6501,222084,173496,-2271,-0.695323425,-3903,-1.195001025
2023-11-10 13:33:48.813,6502,222096,173487,-2907,-0.890050725,-3799,-1.163158825
2023-11-10 13:33:48.813,6503,222110,173505,-4428,-1.3557429,-3719,-1.138664825
2023-11-10 13:33:48.813,6504,222119,173490,-2808,-0.8597394,-3621,-1.108659675
2023-11-10 13:33:48.813,6505,222143,173514,-2418,-0.74033115,-3486,-1.06732605
2023-11-10 13:33:48.813,6506,222172,173511,-4279,-1.310122825,-3371,-1.032115925
2023-11-10 13:33:48.846,6507,222184,173527,-3523,-1.078654525,-3260,-0.9981305
2023-11-10 13:33:48.846,6508,222210,173523,-2035,-0.623066125,-3116,-0.9540413
2023-11-10 13:33:48.846,6509,222216,173535,-3656,-1.1193758,-3011,-0.921892925
2023-11-10 13:33:48.846,6510,222246,173550,-4086,-1.25103105,-2984,-0.9136262
2023-11-10 13:33:48.846,6511,222262,173535,-2276,-0.6968543,-2975,-0.910870625
2023-11-10 13:33:48.846,6512,222268,173546,-2935,-0.898623625,-2999,-0.918218825
2023-11-10 13:33:48.846,6513,222278,173548,-4428,-1.3557429,-3092,-0.9466931
2023-11-10 13:33:48.879,6514,222289,173549,-2818,-0.86280115,-3170,-0.97057475
2023-11-10 13:33:48.879,6515,222259,173528,-2432,-0.7446176,-3191,-0.977004425
2023-11-10 13:33:48.879,6516,222255,173529,-4484,-1.3728887,-3210,-0.98282175
2023-11-10 13:33:48.879,6517,222215,173497,-3768,-1.1536674,-3221,-0.986189675
2023-11-10 13:33:48.879,6518,222150,173469,-2328,-0.7127754,-3189,-0.976392075
2023-11-10 13:33:48.879,6519,222061,173439,-3909,-1.196838075,-3179,-0.973330325
2023-11-10 13:33:48.907,6520,221955,173401,-4495,-1.376256625,-3218,-0.98527115
2023-11-10 13:33:48.907,6521,221820,173350,-2568,-0.7862574,-3233,-0.989863775
2023-11-10 13:33:48.907,6522,221685,173304,-3186,-0.97547355,-3231,-0.989251425
2023-11-10 13:33:48.907,6523,221577,173255,-4771,-1.460760925,-3255,-0.996599625
2023-11-10 13:33:48.907,6524,221422,173198,-3228,-0.9883329,-3256,-0.9969058
2023-11-10 13:33:48.907,6525,221287,173145,-2808,-0.8597394,-3224,-0.9871082
2023-11-10 13:33:48.907,6526,221184,173121,-4707,-1.441165725,-3230,-0.98894525
2023-11-10 13:33:48.936,6527,221067,173077,-3968,-1.2149024,-3256,-0.9969058
2023-11-10 13:33:48.936,6528,220950,173028,-2558,-0.78319565,-3245,-0.993537875
2023-11-10 13:33:48.936,6529,220849,172987,-4179,-1.279505325,-3243,-0.992925525
2023-11-10 13:33:48.936,6530,220760,172964,-4765,-1.458923875,-3268,-1.0005799
2023-11-10 13:33:48.936,6531,220705,172938,-2832,-0.8670876,-3258,-0.99751815
2023-11-10 13:33:48.936,6532,220627,172903,-3329,-1.019256575,-3238,-0.99139465
2023-11-10 13:33:48.969,6533,220574,172897,-4971,-1.521995925,-3265,-0.999661375
2023-11-10 13:33:48.969,6534,220553,172888,-3233,-0.989863775,-3289,-1.007009575
2023-11-10 13:33:48.969,6535,220517,172865,-2621,-0.802484675,-3284,-1.0054787
2023-11-10 13:33:48.969,6536,220482,172863,-4573,-1.400138275,-3316,-1.0152763
2023-11-10 13:33:48.969,6537,220479,172863,-3644,-1.1157017,-3364,-1.0299727
2023-11-10 13:33:48.969,6538,220487,172851,-2067,-0.632863725,-3374,-1.03303445
2023-11-10 13:33:48.969,6539,220492,172857,-3651,-1.117844925,-3394,-1.03915795
2023-11-10 13:33:48.969,6540,220485,172849,-4023,-1.231742025,-3447,-1.055385225
2023-11-10 13:33:48.969,6541,220500,172857,-1995,-0.610819125,-3473,-1.063345775
2023-11-10 13:33:49.000,6542,220506,172845,-2657,-0.813506975,-3490,-1.06855075
2023-11-10 13:33:49.000,6543,220522,172869,-4188,-1.2822609,-3546,-1.08569655
2023-11-10 13:33:49.000,6544,220531,172851,-2509,-0.768193075,-3586,-1.09794355
2023-11-10 13:33:49.000,6545,220534,172875,-2075,-0.635313125,-3588,-1.0985559
2023-11-10 13:33:49.000,6546,220538,172859,-3922,-1.20081835,-3620,-1.1083535
2023-11-10 13:33:49.000,6547,220556,172867,-3131,-0.958633925,-3665,-1.122131375
2023-11-10 13:33:49.000,6548,220571,172861,-1859,-0.569179325,-3667,-1.122743725
2023-11-10 13:33:49.032,6549,220582,172873,-3491,-1.068856925,-3677,-1.125805475
2023-11-10 13:33:49.032,6550,220580,172860,-3848,-1.1781614,-3722,-1.13958335
2023-11-10 13:33:49.032,6551,220591,172872,-1902,-0.58234485,-3732,-1.1426451
2023-11-10 13:33:49.032,6552,220596,172858,-2576,-0.7887068,-3719,-1.138664825
2023-11-10 13:33:49.032,6553,220555,172855,-4332,-1.3263501,-3734,-1.14325745
2023-11-10 13:33:49.061,6554,220560,172845,-2537,-0.776765975,-3723,-1.139889525
2023-11-10 13:33:49.061,6555,220559,172848,-1943,-0.594898025,-3667,-1.122743725
2023-11-10 13:33:49.061,6556,220546,172838,-3941,-1.206635675,-3634,-1.11263995
2023-11-10 13:33:49.061,6557,220532,172841,-3327,-1.018644225,-3606,-1.10406705
2023-11-10 13:33:49.096,6558,220508,172830,-1755,-0.537337125,-3525,-1.079266875
2023-11-10 13:33:49.096,6559,220502,172819,-3409,-1.043750575,-3447,-1.055385225
2023-11-10 13:33:49.096,6560,220477,172810,-4018,-1.23021115,-3399,-1.040688825
2023-11-10 13:33:49.096,6561,220465,172805,-2159,-0.661031825,-3318,-1.01588865
2023-11-10 13:33:49.096,6562,220441,172788,-2707,-0.828815725,-3226,-0.98772055
2023-11-10 13:33:49.096,6563,220427,172781,-4161,-1.273994175,-3180,-0.9736365
2023-11-10 13:33:49.128,6564,220427,172775,-2759,-0.844736825,-3129,-0.958021575
2023-11-10 13:33:49.128,6565,220416,172775,-2196,-0.6723603,-3056,-0.9356708
2023-11-10 13:33:49.128,6566,220402,172769,-4118,-1.26082865,-3028,-0.9270979
2023-11-10 13:33:49.128,6567,220411,172764,-3395,-1.039464125,-3020,-0.9246485
2023-11-10 13:33:49.128,6568,220405,172759,-1866,-0.57132255,-2975,-0.910870625
2023-11-10 13:33:49.128,6569,220408,172755,-3373,-1.032728275,-2952,-0.9038286
2023-11-10 13:33:49.157,6570,220420,172747,-3991,-1.221944425,-2975,-0.910870625
2023-11-10 13:33:49.157,6571,220418,172759,-2193,-0.671441775,-2973,-0.910258275
2023-11-10 13:33:49.157,6572,220433,172761,-2846,-0.87137405,-2953,-0.904134775
2023-11-10 13:33:49.157,6573,220416,172768,-4358,-1.33431065,-2971,-0.909645925
2023-11-10 13:33:49.157,6574,220437,172767,-2648,-0.8107514,-2980,-0.9124015
2023-11-10 13:33:49.157,6575,220432,172763,-2013,-0.616330275,-2958,-0.90566565
2023-11-10 13:33:49.157,6576,220449,172766,-4158,-1.27307565,-2967,-0.908421225
2023-11-10 13:33:49.190,6577,220462,172772,-3575,-1.094575625,-2992,-0.9160756
2023-11-10 13:33:49.190,6578,220459,172772,-1991,-0.609594425,-2981,-0.912707675
2023-11-10 13:33:49.190,6579,220452,172775,-3458,-1.05875315,-2984,-0.9136262
2023-11-10 13:33:49.190,6580,220459,172750,-4057,-1.242151975,-3018,-0.92403615
2023-11-10 13:33:49.190,6581,220442,172756,-2173,-0.665318275,-3020,-0.9246485
2023-11-10 13:33:49.190,6582,220433,172752,-2683,-0.821467525,-3009,-0.921280575
2023-11-10 13:33:49.190,6583,220442,172738,-4303,-1.317471025,-3044,-0.9319967
2023-11-10 13:33:49.219,6584,220434,172732,-2695,-0.825141625,-3068,-0.9393449
2023-11-10 13:33:49.219,6585,220443,172727,-2124,-0.6503157,-3054,-0.93505845
2023-11-10 13:33:49.219,6586,220421,172731,-3982,-1.21918885,-3068,-0.9393449
2023-11-10 13:33:49.219,6587,220421,172728,-3404,-1.0422197,-3095,-0.947611625
2023-11-10 13:33:49.219,6588,220393,172720,-2056,-0.6294958,-3081,-0.943325175
2023-11-10 13:33:49.251,6589,220398,172713,-3561,-1.090289175,-3078,-0.94240665
2023-11-10 13:33:49.251,6590,220394,172714,-4063,-1.243989025,-3109,-0.951898075
2023-11-10 13:33:49.251,6591,220397,172716,-2157,-0.660419475,-3107,-0.951285725
2023-11-10 13:33:49.251,6592,220401,172705,-2809,-0.860045575,-3086,-0.94485605
2023-11-10 13:33:49.251,6593,220416,172702,-4246,-1.30001905,-3104,-0.9503672
2023-11-10 13:33:49.251,6594,220398,172708,-2738,-0.83830715,-3117,-0.954347475
2023-11-10 13:33:49.251,6595,220398,172697,-2193,-0.671441775,-3098,-0.94853015
2023-11-10 13:33:49.281,6596,220414,172703,-4035,-1.235416125,-3108,-0.9515919
2023-11-10 13:33:49.281,6597,220408,172693,-3479,-1.065182825,-3134,-0.95955245
2023-11-10 13:33:49.281,6598,220424,172694,-1973,-0.604083275,-3122,-0.95587835
2023-11-10 13:33:49.281,6599,220431,172705,-3449,-1.055997575,-3116,-0.9540413
2023-11-10 13:33:49.281,6600,220429,172702,-4033,-1.234803775,-3141,-0.961695675
2023-11-10 13:33:49.281,6601,220445,172709,-2246,-0.68766905,-3132,-0.9589401
2023-11-10 13:33:49.313,6602,220474,172711,-2720,-0.832796,-3106,-0.95097955
2023-11-10 13:33:49.313,6603,220470,172703,-4344,-1.3300242,-3121,-0.955572175
2023-11-10 13:33:49.313,6604,220496,172713,-2852,-0.8732111,-3124,-0.9564907
2023-11-10 13:33:49.313,6605,220498,172714,-2203,-0.674503525,-3095,-0.947611625
2023-11-10 13:33:49.313,6606,220520,172708,-4084,-1.2504187,-3101,-0.949448675
2023-11-10 13:33:49.313,6607,220530,172729,-3540,-1.0838595,-3127,-0.957409225
2023-11-10 13:33:49.313,6608,220549,172744,-1901,-0.582038675,-3111,-0.952510425
2023-11-10 13:33:49.346,6609,220570,172749,-3500,-1.0716125,-3103,-0.950061025
2023-11-10 13:33:49.346,6610,220598,172726,-4170,-1.27674975,-3127,-0.957409225
2023-11-10 13:33:49.346,6611,220600,172753,-2294,-0.70236545,-3122,-0.95587835
2023-11-10 13:33:49.346,6612,220651,172749,-2799,-0.856983825,-3103,-0.950061025
2023-11-10 13:33:49.346,6613,220647,172758,-4296,-1.3153278,-3126,-0.95710305
2023-11-10 13:33:49.346,6614,220661,172757,-2782,-0.85177885,-3142,-0.96200185
2023-11-10 13:33:49.346,6615,220674,172768,-2188,-0.6699109,-3123,-0.956184525
2023-11-10 13:33:49.374,6616,220704,172764,-4083,-1.250112525,-3128,-0.9577154
2023-11-10 13:33:49.374,6617,220696,172780,-3530,-1.08079775,-3145,-0.962920375
2023-11-10 13:33:49.374,6618,220711,172765,-2148,-0.6576639,-3124,-0.9564907
2023-11-10 13:33:49.374,6619,220703,172770,-3549,-1.086615075,-3113,-0.953122775
2023-11-10 13:33:49.374,6620,220730,172770,-4200,-1.285935,-3137,-0.960470975
2023-11-10 13:33:49.374,6621,220745,172779,-2224,-0.6809332,-3135,-0.959858625
2023-11-10 13:33:49.406,6622,220766,172788,-2768,-0.8474924,-3117,-0.954347475
2023-11-10 13:33:49.406,6623,220776,172779,-4269,-1.307061075,-3141,-0.961695675
2023-11-10 13:33:49.406,6624,220792,172780,-2793,-0.855146775,-3156,-0.9662883
2023-11-10 13:33:49.406,6625,220800,172793,-2332,-0.7140001,-3136,-0.9601648
2023-11-10 13:33:49.406,6626,220797,172788,-4277,-1.309510475,-3144,-0.9626142
2023-11-10 13:33:49.406,6627,220811,172800,-3571,-1.093350925,-3169,-0.970268575
2023-11-10 13:33:49.406,6628,220833,172805,-2064,-0.6319452,-3155,-0.965982125
2023-11-10 13:33:49.406,6629,220831,172807,-3542,-1.08447185,-3150,-0.96445125
2023-11-10 13:33:49.438,6630,220843,172808,-4018,-1.23021115,-3178,-0.97302415
2023-11-10 13:33:49.438,6631,220843,172800,-2165,-0.662868875,-3177,-0.972717975
2023-11-10 13:33:49.438,6632,220872,172812,-2871,-0.879028425,-3156,-0.9662883
2023-11-10 13:33:49.438,6633,220857,172809,-4350,-1.33186125,-3173,-0.971493275
2023-11-10 13:33:49.438,6634,220881,172799,-2880,-0.881784,-3181,-0.973942675
2023-11-10 13:33:49.438,6635,220896,172810,-2249,-0.688587575,-3157,-0.966594475
2023-11-10 13:33:49.469,6636,220899,172814,-4096,-1.2540928,-3167,-0.969656225
2023-11-10 13:33:49.469,6637,220908,172820,-3463,-1.060284025,-3197,-0.978841475
2023-11-10 13:33:49.469,6638,220906,172797,-1999,-0.612043825,-3186,-0.97547355
2023-11-10 13:33:49.469,6639,220918,172813,-3558,-1.08937065,-3179,-0.973330325
2023-11-10 13:33:49.469,6640,220910,172810,-4201,-1.286241175,-3202,-0.98037235
2023-11-10 13:33:49.505,6641,220930,172804,-2236,-0.6846073,-3194,-0.97792295
2023-11-10 13:33:49.505,6642,220935,172807,-2819,-0.863107325,-3172,-0.9711871
2023-11-10 13:33:49.505,6643,220947,172806,-4557,-1.395239475,-3195,-0.978229125
2023-11-10 13:33:49.505,6644,220953,172808,-2903,-0.888826025,-3213,-0.983740275
2023-11-10 13:33:49.505,6645,220971,172824,-2210,-0.67664675,-3198,-0.97914765
2023-11-10 13:33:49.505,6646,220992,172827,-4110,-1.25837925,-3210,-0.98282175
2023-11-10 13:33:49.533,6647,221017,172839,-3609,-1.104985575,-3231,-0.989251425
2023-11-10 13:33:49.533,6648,221006,172824,-2161,-0.661644175,-3206,-0.98159705
2023-11-10 13:33:49.533,6649,221040,172834,-3600,-1.10223,-3187,-0.975779725
2023-11-10 13:33:49.533,6650,221056,172846,-4219,-1.291752325,-3206,-0.98159705
2023-11-10 13:33:49.533,6651,221065,172856,-2537,-0.776765975,-3200,-0.97976
2023-11-10 13:33:49.533,6652,221077,172848,-2996,-0.9173003,-3183,-0.974555025
2023-11-10 13:33:49.567,6653,221114,172861,-4367,-1.337066225,-3205,-0.981290875
2023-11-10 13:33:49.567,6654,221107,172859,-2914,-0.89219395,-3214,-0.98404645
2023-11-10 13:33:49.567,6655,221141,172864,-2213,-0.677565275,-3184,-0.9748612
2023-11-10 13:33:49.567,6656,221136,172868,-4047,-1.239090225,-3182,-0.97424885
2023-11-10 13:33:49.567,6657,221152,172873,-3451,-1.056609925,-3196,-0.9785353
2023-11-10 13:33:49.596,6658,221149,172872,-2026,-0.62031055,-3174,-0.97179945
2023-11-10 13:33:49.596,6659,221175,172870,-3552,-1.0875336,-3168,-0.9699624
2023-11-10 13:33:49.596,6660,221176,172873,-4285,-1.311959875,-3204,-0.9809847
2023-11-10 13:33:49.596,6661,221189,172872,-2212,-0.6772591,-3214,-0.98404645
2023-11-10 13:33:49.596,6662,221189,172873,-2660,-0.8144255,-3203,-0.980678525
2023-11-10 13:33:49.596,6663,221219,172881,-4230,-1.29512025,-3223,-0.986802025
2023-11-10 13:33:49.626,6664,221225,172882,-2761,-0.845349175,-3233,-0.989863775
2023-11-10 13:33:49.626,6665,221230,172877,-2198,-0.67297265,-3211,-0.983127925
2023-11-10 13:33:49.626,6666,221261,172902,-4134,-1.26572745,-3222,-0.98649585
2023-11-10 13:33:49.626,6667,221273,172897,-3752,-1.1487686,-3253,-0.995987275
2023-11-10 13:33:49.626,6668,221272,172898,-2405,-0.736350875,-3251,-0.995374925
2023-11-10 13:33:49.626,6669,221291,172905,-4177,-1.278892975,-3261,-0.998436675
2023-11-10 13:33:49.659,6670,221300,172918,-5128,-1.5700654,-3298,-1.00976515
2023-11-10 13:33:49.659,6671,221317,172920,-3552,-1.0875336,-3295,-1.008846625
2023-11-10 13:33:49.659,6672,221350,172931,-4423,-1.354212025,-3267,-1.000273725
2023-11-10 13:33:49.659,6673,221361,172938,-5573,-1.706313275,-3277,-1.003335475
2023-11-10 13:33:49.659,6674,221388,172950,-3475,-1.063958125,-3279,-1.003947825
2023-11-10 13:33:49.659,6675,221402,172959,-2134,-0.65337745,-3247,-0.994150225
2023-11-10 13:33:49.659,6676,221423,172969,-3404,-1.0422197,-3246,-0.99384405
2023-11-10 13:33:49.688,6677,221442,172966,-2815,-0.861882625,-3263,-0.999049025
2023-11-10 13:33:49.688,6678,221466,172989,-1330,-0.40721275,-3239,-0.991700825
2023-11-10 13:33:49.688,6679,221489,172991,-3113,-0.953122775,-3212,-0.9834341
2023-11-10 13:33:49.688,6680,221497,172998,-3889,-1.190714575,-3214,-0.98404645
2023-11-10 13:33:49.688,6681,221524,172983,-2003,-0.613268525,-3189,-0.976392075
2023-11-10 13:33:49.688,6682,221540,172996,-2651,-0.811669925,-3152,-0.9650636
2023-11-10 13:33:49.688,6683,221567,172994,-4245,-1.299712875,-3160,-0.967513
2023-11-10 13:33:49.720,6684,221535,172994,-2638,-0.80768965,-3173,-0.971493275
2023-11-10 13:33:49.720,6685,221551,173006,-2016,-0.6172488,-3170,-0.97057475
2023-11-10 13:33:49.720,6686,221558,172992,-3889,-1.190714575,-3217,-0.984964975
2023-11-10 13:33:49.720,6687,221563,173003,-3481,-1.065795175,-3304,-1.0116022
2023-11-10 13:33:49.720,6688,221586,173009,-1918,-0.58724365,-3375,-1.033340625
2023-11-10 13:33:49.720,6689,221588,172994,-3309,-1.013133075,-3478,-1.06487665
2023-11-10 13:33:49.750,6690,221597,173002,-3976,-1.2173518,-3625,-1.109884375
2023-11-10 13:33:49.750,6691,221609,173010,-2267,-0.694098725,-3728,-1.1414204
2023-11-10 13:33:49.750,6692,221628,173018,-2685,-0.822079875,-3775,-1.155810625
2023-11-10 13:33:49.750,6693,221637,173018,-4440,-1.359417,-3813,-1.167445275
2023-11-10 13:33:49.750,6694,221650,173022,-2743,-0.839838025,-3798,-1.16285265
2023-11-10 13:33:49.750,6695,221674,173022,-2175,-0.665930625,-3711,-1.136215425
2023-11-10 13:33:49.750,6696,221679,173031,-4106,-1.25715455,-3628,-1.1108029
2023-11-10 13:33:49.783,6697,221693,173026,-3447,-1.055385225,-3547,-1.086002725
2023-11-10 13:33:49.783,6698,221701,173032,-1985,-0.607757375,-3419,-1.046812325
2023-11-10 13:33:49.783,6699,221713,173031,-3487,-1.067632225,-3295,-1.008846625
2023-11-10 13:33:49.783,6700,221727,173046,-4140,-1.2675645,-3201,-0.980066175
2023-11-10 13:33:49.783,6701,221757,173058,-2260,-0.6919555,-3076,-0.9417943
2023-11-10 13:33:49.783,6702,221760,173057,-2711,-0.830040425,-2944,-0.9013792
2023-11-10 13:33:49.811,6703,221786,173062,-4389,-1.343802075,-2879,-0.881477825
2023-11-10 13:33:49.811,6704,221809,173070,-3013,-0.922505275,-2851,-0.872904925
2023-11-10 13:33:49.811,6705,221812,173080,-2281,-0.698385175,-2836,-0.8683123
2023-11-10 13:33:49.811,6706,221842,173085,-4028,-1.2332729,-2887,-0.883927225
2023-11-10 13:33:49.811,6707,221846,173086,-3609,-1.104985575,-2972,-0.9099521
2023-11-10 13:33:49.844,6708,221852,173098,-2129,-0.651846575,-3017,-0.923729975
2023-11-10 13:33:49.844,6709,221845,173089,-3528,-1.0801854,-3050,-0.93383375
2023-11-10 13:33:49.844,6710,221832,173065,-4222,-1.29267085,-3091,-0.946386925
2023-11-10 13:33:49.844,6711,221794,173059,-2470,-0.75625225,-3081,-0.943325175
2023-11-10 13:33:49.844,6712,221749,173024,-2863,-0.876579025,-3051,-0.934139925
2023-11-10 13:33:49.844,6713,221674,173014,-4376,-1.3398218,-3075,-0.941488125
2023-11-10 13:33:49.844,6714,221582,172973,-2978,-0.91178915,-3106,-0.95097955
2023-11-10 13:33:49.877,6715,221503,172925,-2499,-0.765131325,-3105,-0.950673375
2023-11-10 13:33:49.877,6716,221386,172889,-4458,-1.36492815,-3127,-0.957409225
2023-11-10 13:33:49.877,6717,221264,172839,-4031,-1.234191425,-3158,-0.96690065
2023-11-10 13:33:49.877,6718,221134,172795,-2403,-0.735738525,-3142,-0.96200185
2023-11-10 13:33:49.877,6719,221046,172759,-3737,-1.144175975,-3129,-0.958021575
2023-11-10 13:33:49.877,6720,220938,172727,-4410,-1.35023175,-3158,-0.96690065
2023-11-10 13:33:49.909,6721,220838,172689,-2723,-0.833714525,-3167,-0.969656225
2023-11-10 13:33:49.909,6722,220757,172665,-3141,-0.961695675,-3162,-0.96812535
2023-11-10 13:33:49.909,6723,220680,172633,-4653,-1.424632275,-3191,-0.977004425
2023-11-10 13:33:49.909,6724,220606,172616,-3220,-0.9858835,-3205,-0.981290875
2023-11-10 13:33:49.909,6725,220568,172590,-2559,-0.783501825,-3184,-0.9748612
2023-11-10 13:33:49.939,6726,220525,172582,-4241,-1.298488175,-3193,-0.977616775
2023-11-10 13:33:49.939,6727,220482,172561,-3789,-1.160097075,-3223,-0.986802025
2023-11-10 13:33:49.939,6728,220471,172563,-2278,-0.69746665,-3219,-0.985577325
2023-11-10 13:33:49.939,6729,220437,172562,-3616,-1.1071288,-3225,-0.987414375
2023-11-10 13:33:49.939,6730,220425,172553,-4188,-1.2822609,-3263,-0.999049025
2023-11-10 13:33:49.939,6731,220430,172538,-2425,-0.742474375,-3268,-1.0005799
2023-11-10 13:33:49.968,6732,220417,172551,-2589,-0.792687075,-3256,-0.9969058
2023-11-10 13:33:49.968,6733,220411,172543,-4175,-1.278280625,-3287,-1.006397225
2023-11-10 13:33:49.968,6734,220448,172555,-2720,-0.832796,-3323,-1.017419525
2023-11-10 13:33:49.968,6735,220458,172559,-1873,-0.573465775,-3328,-1.0189504
2023-11-10 13:33:49.968,6736,220471,172568,-3597,-1.101311475,-3362,-1.02936035
2023-11-10 13:33:49.968,6737,220470,172571,-3312,-1.0140516,-3413,-1.044975275
2023-11-10 13:33:50.000,6738,220493,172573,-1794,-0.54927795,-3426,-1.04895555
2023-11-10 13:33:50.000,6739,220513,172587,-2882,-0.88239635,-3441,-1.053548175
2023-11-10 13:33:50.000,6740,220535,172583,-3625,-1.109884375,-3484,-1.0667137
2023-11-10 13:33:50.000,6741,220547,172578,-1870,-0.57254725,-3497,-1.070693975
2023-11-10 13:33:50.000,6742,220572,172614,-2378,-0.72808415,-3492,-1.0691631
2023-11-10 13:33:50.000,6743,220562,172602,-4037,-1.236028475,-3521,-1.078042175
2023-11-10 13:33:50.000,6744,220578,172602,-2436,-0.7458423,-3536,-1.0826348
2023-11-10 13:33:50.033,6745,220570,172605,-1691,-0.517741925,-3507,-1.073755725
2023-11-10 13:33:50.033,6746,220594,172614,-3545,-1.085390375,-3496,-1.0703878
2023-11-10 13:33:50.033,6747,220584,172593,-3181,-0.973942675,-3494,-1.06977545
2023-11-10 13:33:50.033,6748,220589,172615,-1647,-0.504270225,-3447,-1.055385225
2023-11-10 13:33:50.033,6749,220596,172596,-3059,-0.936589325,-3400,-1.040995
2023-11-10 13:33:50.033,6750,220581,172584,-3738,-1.14448215,-3385,-1.036402375
2023-11-10 13:33:50.033,6751,220564,172577,-1975,-0.604695625,-3343,-1.023543025
2023-11-10 13:33:50.065,6752,220542,172583,-2177,-0.666542975,-3276,-1.0030293
2023-11-10 13:33:50.065,6753,220534,172558,-3893,-1.191939275,-3234,-0.99016995
2023-11-10 13:33:50.065,6754,220526,172575,-2373,-0.726553275,-3182,-0.97424885
2023-11-10 13:33:50.065,6755,220506,172554,-1722,-0.52723335,-3097,-0.948223975
2023-11-10 13:33:50.065,6756,220508,172549,-3633,-1.112333775,-3039,-0.930465825
2023-11-10 13:33:50.065,6757,220514,172566,-3086,-0.94485605,-3003,-0.919443525
2023-11-10 13:33:50.093,6758,220496,172557,-1667,-0.510393725,-2938,-0.89954215
2023-11-10 13:33:50.093,6759,220491,172560,-3090,-0.94608075,-2885,-0.883314875
2023-11-10 13:33:50.093,6760,220512,172551,-3723,-1.139889525,-2872,-0.8793346
2023-11-10 13:33:50.093,6761,220506,172554,-1899,-0.581426325,-2833,-0.867393775
2023-11-10 13:33:50.093,6762,220516,172558,-2318,-0.70971365,-2778,-0.85055415
2023-11-10 13:33:50.093,6763,220521,172562,-3960,-1.212453,-2772,-0.8487171
2023-11-10 13:33:50.093,6764,220529,172559,-2470,-0.75625225,-2775,-0.849635625
2023-11-10 13:33:50.126,6765,220532,172569,-1818,-0.55662615,-2750,-0.84198125
2023-11-10 13:33:50.126,6766,220546,172567,-3729,-1.141726575,-2749,-0.841675075
2023-11-10 13:33:50.126,6767,220566,172565,-3254,-0.99629345,-2769,-0.847798575
2023-11-10 13:33:50.126,6768,220558,172568,-1703,-0.521416025,-2753,-0.842899775
2023-11-10 13:33:50.126,6769,220543,172582,-3120,-0.955266,-2742,-0.83953185
2023-11-10 13:33:50.126,6770,220542,172577,-3923,-1.201124525,-2765,-0.846573875
2023-11-10 13:33:50.159,6771,220561,172572,-1964,-0.6013277,-2758,-0.84443065
2023-11-10 13:33:50.159,6772,220556,172567,-2275,-0.696548125,-2733,-0.836776275
2023-11-10 13:33:50.159,6773,220566,172570,-4068,-1.2455199,-2747,-0.841062725
2023-11-10 13:33:50.159,6774,220561,172562,-2644,-0.8095267,-2753,-0.842899775
2023-11-10 13:33:50.159,6775,220581,172575,-1916,-0.5866313,-2725,-0.834326875
2023-11-10 13:33:50.188,6776,220581,172571,-3653,-1.118457275,-2728,-0.8352454
2023-11-10 13:33:50.188,6777,220569,172574,-3164,-0.9687377,-2754,-0.84320595
2023-11-10 13:33:50.188,6778,220591,172560,-1639,-0.501820825,-2742,-0.83953185
2023-11-10 13:33:50.188,6779,220582,172570,-3181,-0.973942675,-2735,-0.837388625
2023-11-10 13:33:50.188,6780,220585,172568,-3897,-1.193163975,-2761,-0.845349175
2023-11-10 13:33:50.188,6781,220585,172584,-1951,-0.597347425,-2758,-0.84443065
2023-11-10 13:33:50.188,6782,220619,172571,-2327,-0.712469225,-2739,-0.838613325
2023-11-10 13:33:50.220,6783,220580,172580,-4059,-1.242764325,-2764,-0.8462677
2023-11-10 13:33:50.220,6784,220615,172561,-2590,-0.79299325,-2788,-0.8536159
2023-11-10 13:33:50.220,6785,220608,172574,-1947,-0.596122725,-2780,-0.8511665
2023-11-10 13:33:50.220,6786,220611,172561,-3700,-1.1328475,-2797,-0.856371475
2023-11-10 13:33:50.220,6787,220612,172581,-3197,-0.978841475,-2829,-0.866169075
2023-11-10 13:33:50.220,6788,220627,172566,-1614,-0.49416645,-2819,-0.863107325
2023-11-10 13:33:50.253,6789,220655,172585,-3123,-0.956184525,-2810,-0.86035175
2023-11-10 13:33:50.253,6790,220647,172583,-3913,-1.198062775,-2839,-0.869230825
2023-11-10 13:33:50.254,6791,220668,172582,-2111,-0.646335425,-2845,-0.871067875
2023-11-10 13:33:50.254,6792,220682,172583,-2344,-0.7176742,-2833,-0.867393775
2023-11-10 13:33:50.254,6793,220689,172595,-3970,-1.21551475,-2857,-0.874741975
2023-11-10 13:33:50.254,6794,220711,172590,-2483,-0.760232525,-2869,-0.878416075
2023-11-10 13:33:50.254,6795,220739,172610,-1909,-0.584488075,-2843,-0.870455525
2023-11-10 13:33:50.254,6796,220739,172613,-3929,-1.202961575,-2846,-0.87137405
2023-11-10 13:33:50.283,6797,220757,172611,-3446,-1.05507905,-2868,-0.8781099
2023-11-10 13:33:50.283,6798,220784,172621,-1798,-0.55050265,-2847,-0.871680225
2023-11-10 13:33:50.283,6799,220787,172627,-3019,-0.924342325,-2831,-0.866781425
2023-11-10 13:33:50.283,6800,220804,172647,-3852,-1.1793861,-2856,-0.8744358
2023-11-10 13:33:50.283,6801,220831,172645,-2177,-0.666542975,-2857,-0.874741975
2023-11-10 13:33:50.283,6802,220858,172636,-2449,-0.749822575,-2838,-0.86892465
2023-11-10 13:33:50.283,6803,220858,172649,-4046,-1.23878405,-2855,-0.874129625
2023-11-10 13:33:50.311,6804,220866,172641,-2676,-0.8193243,-2863,-0.876579025
2023-11-10 13:33:50.311,6805,220880,172660,-2002,-0.61296235,-2837,-0.868618475
2023-11-10 13:33:50.311,6806,220893,172667,-3864,-1.1830602,-2841,-0.869843175
2023-11-10 13:33:50.311,6807,220912,172663,-3399,-1.040688825,-2866,-0.87749755
2023-11-10 13:33:50.311,6808,220952,172665,-1817,-0.556319975,-2853,-0.873517275
2023-11-10 13:33:50.343,6809,220947,172669,-3173,-0.971493275,-2846,-0.87137405
2023-11-10 13:33:50.343,6810,220970,172691,-3996,-1.2234753,-2872,-0.8793346
2023-11-10 13:33:50.343,6811,220994,172691,-2205,-0.675115875,-2866,-0.87749755
2023-11-10 13:33:50.343,6812,221003,172687,-2497,-0.764518975,-2841,-0.869843175
2023-11-10 13:33:50.343,6813,221024,172705,-4129,-1.264196575,-2860,-0.8756605
2023-11-10 13:33:50.343,6814,221044,172712,-2814,-0.86157645,-2879,-0.881477825
2023-11-10 13:33:50.343,6815,221070,172704,-1972,-0.6037771,-2866,-0.87749755
2023-11-10 13:33:50.374,6816,221071,172725,-3897,-1.193163975,-2880,-0.881784
2023-11-10 13:33:50.374,6817,221092,172738,-3581,-1.096412675,-2910,-0.89096925
2023-11-10 13:33:50.374,6818,221104,172727,-1893,-0.579589275,-2901,-0.888213675
2023-11-10 13:33:50.374,6819,221147,172736,-3100,-0.9491425,-2894,-0.88607045
2023-11-10 13:33:50.374,6820,221150,172751,-3965,-1.213983875,-2920,-0.894031
2023-11-10 13:33:50.374,6821,221159,172756,-2295,-0.702671625,-2921,-0.894337175
2023-11-10 13:33:50.406,6822,221176,172745,-2588,-0.7923809,-2908,-0.8903569
2023-11-10 13:33:50.406,6823,221187,172758,-4178,-1.27919915,-2936,-0.8989298
2023-11-10 13:33:50.406,6824,221218,172759,-2701,-0.826978675,-2954,-0.90444095
2023-11-10 13:33:50.406,6825,221215,172765,-2033,-0.622453775,-2934,-0.89831745
2023-11-10 13:33:50.406,6826,221237,172770,-3992,-1.2222506,-2939,-0.899848325
2023-11-10 13:33:50.439,6827,221248,172775,-3631,-1.111721425,-2968,-0.9087274
2023-11-10 13:33:50.439,6828,221262,172774,-2051,-0.627964925,-2958,-0.90566565
2023-11-10 13:33:50.439,6829,221273,172781,-3361,-1.029054175,-2949,-0.902910075
2023-11-10 13:33:50.439,6830,221276,172784,-4147,-1.269707725,-2977,-0.911482975
2023-11-10 13:33:50.439,6831,221291,172791,-2316,-0.7091013,-2985,-0.913932375
2023-11-10 13:33:50.439,6832,221311,172794,-2743,-0.839838025,-2975,-0.910870625
2023-11-10 13:33:50.439,6833,221316,172805,-4478,-1.37105165,-3001,-0.918831175
2023-11-10 13:33:50.469,6834,221341,172809,-3066,-0.93873255,-3020,-0.9246485
2023-11-10 13:33:50.469,6835,221354,172800,-2098,-0.64235515,-2999,-0.918218825
2023-11-10 13:33:50.469,6836,221382,172813,-4055,-1.241539625,-3002,-0.91913735
2023-11-10 13:33:50.469,6837,221371,172821,-3721,-1.139277175,-3025,-0.926179375
2023-11-10 13:33:50.469,6838,221410,172821,-1995,-0.610819125,-3016,-0.9234238
2023-11-10 13:33:50.469,6839,221415,172818,-3286,-1.00609105,-3011,-0.921892925
2023-11-10 13:33:50.502,6840,221423,172836,-4149,-1.270320075,-3039,-0.930465825
2023-11-10 13:33:50.502,6841,221440,172841,-2277,-0.697160475,-3037,-0.929853475
2023-11-10 13:33:50.502,6842,221471,172854,-2467,-0.755333725,-3014,-0.92281145
2023-11-10 13:33:50.502,6843,221482,172853,-4158,-1.27307565,-3034,-0.92893495
2023-11-10 13:33:50.502,6844,221499,172866,-2702,-0.82728485,-3054,-0.93505845
2023-11-10 13:33:50.502,6845,221514,172872,-1954,-0.59826595,-3039,-0.930465825
2023-11-10 13:33:50.502,6846,221537,172877,-3913,-1.198062775,-3052,-0.9344461
2023-11-10 13:33:50.502,6847,221555,172889,-3554,-1.08814595,-3089,-0.945774575
2023-11-10 13:33:50.530,6848,221571,172890,-1887,-0.577752225,-3090,-0.94608075
2023-11-10 13:33:50.530,6849,221579,172897,-3149,-0.964145075,-3094,-0.94730545
2023-11-10 13:33:50.530,6850,221639,172908,-4132,-1.2651151,-3135,-0.959858625
2023-11-10 13:33:50.530,6851,221635,172921,-2178,-0.66684915,-3153,-0.965369775
2023-11-10 13:33:50.530,6852,221638,172915,-2449,-0.749822575,-3150,-0.96445125
2023-11-10 13:33:50.530,6853,221665,172923,-4255,-1.302774625,-3184,-0.9748612
2023-11-10 13:33:50.530,6854,221705,172932,-3084,-0.9442437,-3210,-0.98282175
2023-11-10 13:33:50.563,6855,221713,172953,-2391,-0.732064425,-3194,-0.97792295
2023-11-10 13:33:50.563,6856,221747,172951,-4532,-1.3875851,-3198,-0.97914765
2023-11-10 13:33:50.563,6857,221759,172952,-4672,-1.4304496,-3218,-0.98527115
2023-11-10 13:33:50.563,6858,221772,172968,-3441,-1.053548175,-3196,-0.9785353
2023-11-10 13:33:50.563,6859,221780,172960,-4901,-1.500563675,-3173,-0.971493275
2023-11-10 13:33:50.596,6860,221821,172978,-5272,-1.6141546,-3179,-0.973330325
2023-11-10 13:33:50.596,6861,221827,172969,-2686,-0.82238605,-3154,-0.96567595
2023-11-10 13:33:50.596,6862,221844,172979,-2206,-0.67542205,-3107,-0.951285725
2023-11-10 13:33:50.625,6863,221867,172985,-3540,-1.0838595,-3103,-0.950061025
2023-11-10 13:33:50.625,6864,221880,172998,-2202,-0.67419735,-3098,-0.94853015
2023-11-10 13:33:50.625,6865,221887,173000,-1639,-0.501820825,-3054,-0.93505845
2023-11-10 13:33:50.625,6866,221918,173008,-3550,-1.08692125,-3037,-0.929853475
2023-11-10 13:33:50.625,6867,221948,173019,-3309,-1.013133075,-3050,-0.93383375
2023-11-10 13:33:50.625,6868,221949,173022,-1785,-0.546522375,-3029,-0.927404075
2023-11-10 13:33:50.658,6869,221956,173022,-3032,-0.9283226,-3012,-0.9221991
2023-11-10 13:33:50.658,6870,221976,173022,-3978,-1.21796415,-3035,-0.929241125
2023-11-10 13:33:50.658,6871,222002,173024,-2316,-0.7091013,-3041,-0.931078175
2023-11-10 13:33:50.658,6872,222008,173050,-2458,-0.75257815,-3041,-0.931078175
2023-11-10 13:33:50.658,6873,222035,173049,-4097,-1.254398975,-3099,-0.948836325
2023-11-10 13:33:50.658,6874,222048,173048,-2741,-0.839225675,-3182,-0.97424885
2023-11-10 13:33:50.687,6875,222061,173055,-2015,-0.616942625,-3262,-0.99874285
2023-11-10 13:33:50.687,6876,222084,173071,-3873,-1.185815775,-3394,-1.03915795
2023-11-10 13:33:50.687,6877,222108,173075,-3472,-1.0630396,-3547,-1.086002725
2023-11-10 13:33:50.687,6878,222116,173081,-1915,-0.586325125,-3633,-1.112333775
2023-11-10 13:33:50.687,6879,222117,173079,-3198,-0.97914765,-3674,-1.12488695
2023-11-10 13:33:50.687,6880,222160,173089,-4068,-1.2455199,-3705,-1.134378375
2023-11-10 13:33:50.687,6881,222166,173103,-2326,-0.71216305,-3671,-1.123968425
2023-11-10 13:33:50.720,6882,222206,173101,-2677,-0.819630475,-3587,-1.098249725
2023-11-10 13:33:50.720,6883,222221,173108,-4272,-1.3079796,-3522,-1.07834835
2023-11-10 13:33:50.720,6884,222224,173122,-2848,-0.8719864,-3443,-1.054160525
2023-11-10 13:33:50.720,6885,222242,173119,-2104,-0.6441922,-3319,-1.016194825
2023-11-10 13:33:50.720,6886,222246,173115,-3991,-1.221944425,-3209,-0.982515575
2023-11-10 13:33:50.720,6887,222272,173133,-3699,-1.132541325,-3110,-0.95220425
2023-11-10 13:33:50.720,6888,222292,173132,-2227,-0.681851725,-2975,-0.910870625
2023-11-10 13:33:50.752,6889,222310,173136,-3340,-1.0226245,-2859,-0.875354325
2023-11-10 13:33:50.752,6890,222338,173128,-4138,-1.26695215,-2813,-0.861270275
2023-11-10 13:33:50.752,6891,222355,173158,-2323,-0.711244525,-2789,-0.853922075
2023-11-10 13:33:50.752,6892,222350,173147,-2622,-0.80279085,-2791,-0.854534425
2023-11-10 13:33:50.752,6893,222383,173149,-4316,-1.3214513,-2864,-0.8768852
2023-11-10 13:33:50.752,6894,222377,173171,-3126,-0.95710305,-2945,-0.901685375
2023-11-10 13:33:50.752,6895,222398,173142,-2302,-0.70481485,-2979,-0.912095325
2023-11-10 13:33:50.752,6896,222376,173157,-4127,-1.263584225,-3010,-0.92158675
2023-11-10 13:33:50.752,6897,222375,173147,-3860,-1.1818355,-3037,-0.929853475
2023-11-10 13:33:50.781,6898,222352,173142,-2287,-0.700222225,-3015,-0.923117625
2023-11-10 13:33:50.781,6899,222305,173136,-3458,-1.05875315,-3002,-0.91913735
2023-11-10 13:33:50.781,6900,222270,173101,-4377,-1.340127975,-3038,-0.93015965
2023-11-10 13:33:50.781,6901,222199,173074,-2739,-0.838613325,-3061,-0.937201675
2023-11-10 13:33:50.781,6902,222104,173045,-2899,-0.887601325,-3063,-0.937814025
2023-11-10 13:33:50.781,6903,222009,173008,-4513,-1.381767775,-3094,-0.94730545
2023-11-10 13:33:50.781,6904,221919,172971,-3286,-1.00609105,-3113,-0.953122775
2023-11-10 13:33:50.815,6905,221791,172940,-2527,-0.773704225,-3098,-0.94853015
2023-11-10 13:33:50.815,6906,221698,172902,-4365,-1.336453875,-3113,-0.953122775
2023-11-10 13:33:50.815,6907,221614,172868,-4272,-1.3079796,-3154,-0.96567595
2023-11-10 13:33:50.815,6908,221521,172835,-2634,-0.80646495,-3159,-0.967206825
2023-11-10 13:33:50.815,6909,221443,172822,-3836,-1.1744873,-3161,-0.967819175
2023-11-10 13:33:50.815,6910,221378,172777,-4647,-1.422795225,-3189,-0.976392075
2023-11-10 13:33:50.844,6911,221318,172772,-2964,-0.9075027,-3189,-0.976392075
2023-11-10 13:33:50.844,6912,221255,172746,-3189,-0.976392075,-3172,-0.9711871
2023-11-10 13:33:50.844,6913,221222,172736,-4710,-1.44208425,-3199,-0.979453825
2023-11-10 13:33:50.877,6914,221182,172711,-3358,-1.02813565,-3230,-0.98894525
2023-11-10 13:33:50.877,6915,221162,172729,-2538,-0.77707215,-3229,-0.988639075
2023-11-10 13:33:50.877,6916,221140,172700,-4248,-1.3006314,-3249,-0.994762575
2023-11-10 13:33:50.877,6917,221117,172714,-3838,-1.17509965,-3288,-1.0067034
2023-11-10 13:33:50.877,6918,221112,172693,-2066,-0.63255755,-3292,-1.0079281
2023-11-10 13:33:50.877,6919,221105,172695,-3210,-0.98282175,-3298,-1.00976515
2023-11-10 13:33:50.909,6920,221113,172691,-4111,-1.258685425,-3340,-1.0226245
2023-11-10 13:33:50.909,6921,221112,172695,-2340,-0.7164495,-3361,-1.029054175
2023-11-10 13:33:50.909,6922,221102,172689,-2343,-0.717368025,-3366,-1.03058505
2023-11-10 13:33:50.909,6923,221126,172699,-4046,-1.23878405,-3413,-1.044975275
2023-11-10 13:33:50.909,6924,221140,172699,-2782,-0.85177885,-3461,-1.059671675
2023-11-10 13:33:50.909,6925,221161,172711,-1881,-0.575915175,-3469,-1.062121075
2023-11-10 13:33:50.938,6926,221182,172707,-3789,-1.160097075,-3496,-1.0703878
2023-11-10 13:33:50.938,6927,221178,172716,-3451,-1.056609925,-3543,-1.084778025
2023-11-10 13:33:50.938,6928,221205,172717,-1928,-0.5903054,-3557,-1.089064475
2023-11-10 13:33:50.938,6929,221211,172734,-3051,-0.934139925,-3575,-1.094575625
2023-11-10 13:33:50.938,6930,221237,172734,-3877,-1.187040475,-3627,-1.110496725
2023-11-10 13:33:50.938,6931,221235,172736,-2159,-0.661031825,-3647,-1.116620225
2023-11-10 13:33:50.938,6932,221255,172745,-2395,-0.733289125,-3635,-1.112946125
2023-11-10 13:33:50.938,6933,221242,172752,-4010,-1.22776175,-3649,-1.117232575
2023-11-10 13:33:50.971,6934,221259,172746,-2740,-0.8389195,-3647,-1.116620225
2023-11-10 13:33:50.971,6935,221273,172764,-1925,-0.589386875,-3595,-1.100699125
2023-11-10 13:33:50.971,6936,221276,172753,-3597,-1.101311475,-3555,-1.088452125
2023-11-10 13:33:50.971,6937,221275,172752,-3434,-1.05140495,-3531,-1.081103925
2023-11-10 13:33:50.971,6938,221278,172746,-1788,-0.5474409,-3462,-1.05997785
2023-11-10 13:33:50.971,6939,221264,172749,-3002,-0.91913735,-3383,-1.035790025
2023-11-10 13:33:50.971,6940,221264,172715,-3949,-1.209085075,-3331,-1.019868925
2023-11-10 13:33:51.000,6941,221256,172748,-2171,-0.664705925,-3258,-0.99751815
2023-11-10 13:33:51.000,6942,221246,172725,-2378,-0.72808415,-3173,-0.971493275
2023-11-10 13:33:51.000,6943,221238,172740,-4120,-1.261441,-3133,-0.959246275
2023-11-10 13:33:51.000,6944,221225,172727,-2818,-0.86280115,-3099,-0.948836325
2023-11-10 13:33:51.000,6945,221219,172723,-1954,-0.59826595,-3035,-0.929241125
2023-11-10 13:33:51.036,6946,221218,172725,-3833,-1.173568775,-3001,-0.918831175
2023-11-10 13:33:51.036,6947,221228,172727,-3567,-1.092126225,-2996,-0.9173003
2023-11-10 13:33:51.036,6948,221229,172727,-1861,-0.569791675,-2960,-0.906278
2023-11-10 13:33:51.036,6949,221255,172727,-3104,-0.9503672,-2934,-0.89831745
2023-11-10 13:33:51.036,6950,221261,172738,-4111,-1.258685425,-2951,-0.903522425
2023-11-10 13:33:51.036,6951,221268,172729,-2179,-0.667155325,-2948,-0.9026039
2023-11-10 13:33:51.036,6952,221263,172728,-2434,-0.74522995,-2924,-0.8952557
2023-11-10 13:33:51.065,6953,221275,172730,-4155,-1.272157125,-2933,-0.898011275
2023-11-10 13:33:51.065,6954,221255,172721,-2867,-0.877803725,-2940,-0.9001545
2023-11-10 13:33:51.065,6955,221298,172739,-2069,-0.633476075,-2911,-0.891275425
2023-11-10 13:33:51.065,6956,221288,172722,-3783,-1.158260025,-2905,-0.889438375
2023-11-10 13:33:51.065,6957,221290,172735,-3575,-1.094575625,-2923,-0.894949525
2023-11-10 13:33:51.065,6958,221289,172736,-1918,-0.58724365,-2908,-0.8903569
2023-11-10 13:33:51.094,6959,221299,172724,-3264,-0.9993552,-2895,-0.886376625
2023-11-10 13:33:51.094,6960,221287,172722,-4200,-1.285935,-2919,-0.893724825
2023-11-10 13:33:51.094,6961,221280,172726,-2402,-0.73543235,-2923,-0.894949525
2023-11-10 13:33:51.094,6962,221300,172728,-2524,-0.7727857,-2907,-0.890050725
2023-11-10 13:33:51.094,6963,221280,172730,-4163,-1.274606525,-2933,-0.898011275
2023-11-10 13:33:51.094,6964,221305,172729,-2950,-0.90321625,-2959,-0.905971825
2023-11-10 13:33:51.094,6965,221315,172714,-2080,-0.636844,-2947,-0.902297725
2023-11-10 13:33:51.127,6966,221301,172741,-3860,-1.1818355,-2958,-0.90566565
2023-11-10 13:33:51.127,6967,221324,172744,-3691,-1.130091925,-2992,-0.9160756
2023-11-10 13:33:51.127,6968,221330,172734,-2014,-0.61663645,-2988,-0.9148509
2023-11-10 13:33:51.127,6969,221319,172738,-3145,-0.962920375,-2982,-0.91301385
2023-11-10 13:33:51.127,6970,221332,172755,-4191,-1.283179425,-3012,-0.9221991
2023-11-10 13:33:51.127,6971,221318,172724,-2427,-0.743086725,-3017,-0.923729975
2023-11-10 13:33:51.127,6972,221345,172734,-2452,-0.7507411,-3001,-0.918831175
2023-11-10 13:33:51.156,6973,221358,172736,-4248,-1.3006314,-3020,-0.9246485
2023-11-10 13:33:51.156,6974,221347,172742,-2982,-0.91301385,-3036,-0.9295473
2023-11-10 13:33:51.156,6975,221367,172730,-2011,-0.615717925,-3015,-0.923117625
2023-11-10 13:33:51.156,6976,221352,172737,-3765,-1.152748875,-3021,-0.924954675
2023-11-10 13:33:51.156,6977,221391,172741,-3515,-1.076205125,-3054,-0.93505845
2023-11-10 13:33:51.156,6978,221359,172735,-1970,-0.60316475,-3050,-0.93383375
2023-11-10 13:33:51.189,6979,221385,172745,-3272,-1.0018046,-3048,-0.9332214
2023-11-10 13:33:51.189,6980,221403,172738,-4164,-1.2749127,-3081,-0.943325175
2023-11-10 13:33:51.189,6981,221399,172751,-2275,-0.696548125,-3090,-0.94608075
2023-11-10 13:33:51.189,6982,221422,172740,-2550,-0.78074625,-3076,-0.9417943
2023-11-10 13:33:51.219,6983,221435,172756,-4247,-1.300325225,-3095,-0.947611625
2023-11-10 13:33:51.219,6984,221447,172754,-3058,-0.93628315,-3113,-0.953122775
2023-11-10 13:33:51.219,6985,221451,172767,-2156,-0.6601133,-3096,-0.9479178
2023-11-10 13:33:51.219,6986,221484,172762,-3854,-1.17999845,-3101,-0.949448675
2023-11-10 13:33:51.219,6987,221509,172766,-3639,-1.114170825,-3128,-0.9577154
2023-11-10 13:33:51.219,6988,221533,172782,-2062,-0.63133285,-3117,-0.954347475
2023-11-10 13:33:51.249,6989,221552,172792,-3208,-0.9822094,-3102,-0.94975485
2023-11-10 13:33:51.249,6990,221566,172800,-4073,-1.247050775,-3122,-0.95587835
2023-11-10 13:33:51.249,6991,221588,172797,-2464,-0.7544152,-3120,-0.955266
2023-11-10 13:33:51.249,6992,221608,172828,-2529,-0.774316575,-3095,-0.947611625
2023-11-10 13:33:51.249,6993,221628,172835,-4201,-1.286241175,-3105,-0.950673375
2023-11-10 13:33:51.249,6994,221649,172848,-3016,-0.9234238,-3112,-0.9528166
2023-11-10 13:33:51.282,6995,221700,172850,-2144,-0.6564392,-3084,-0.9442437
2023-11-10 13:33:51.282,6996,221698,172858,-3805,-1.164995875,-3082,-0.94363135
2023-11-10 13:33:51.282,6997,221738,172870,-3751,-1.148462425,-3104,-0.9503672
2023-11-10 13:33:51.282,6998,221751,172873,-2053,-0.628577275,-3085,-0.944549875
2023-11-10 13:33:51.282,6999,221778,172880,-3251,-0.995374925,-3067,-0.939038725
2023-11-10 13:33:51.282,7000,221786,172893,-4181,-1.280117675,-3091,-0.946386925
2023-11-10 13:33:51.282,7001,221808,172885,-2381,-0.729002675,-3097,-0.948223975
2023-11-10 13:33:51.311,7002,221815,172892,-2497,-0.764518975,-3081,-0.943325175
2023-11-10 13:33:51.311,7003,221835,172899,-4170,-1.27674975,-3100,-0.9491425
2023-11-10 13:33:51.311,7004,221850,172897,-2864,-0.8768852,-3119,-0.954959825
2023-11-10 13:33:51.311,7005,221862,172893,-2159,-0.661031825,-3105,-0.950673375
2023-11-10 13:33:51.311,7006,221864,172910,-4003,-1.225618525,-3114,-0.95342895
2023-11-10 13:33:51.311,7007,221874,172910,-3720,-1.138971,-3141,-0.961695675
2023-11-10 13:33:51.311,7008,221882,172915,-2055,-0.629189625,-3131,-0.958633925
2023-11-10 13:33:51.343,7009,221890,172914,-3337,-1.021705975,-3121,-0.955572175
2023-11-10 13:33:51.343,7010,221905,172921,-4206,-1.28777205,-3144,-0.9626142
2023-11-10 13:33:51.343,7011,221913,172925,-2539,-0.777378325,-3142,-0.96200185
2023-11-10 13:33:51.343,7012,221928,172920,-2574,-0.78809445,-3117,-0.954347475
2023-11-10 13:33:51.343,7013,221955,172926,-4251,-1.301549925,-3128,-0.9577154
2023-11-10 13:33:51.376,7014,221951,172936,-3291,-1.007621925,-3143,-0.962308025
2023-11-10 13:33:51.376,7015,221981,172929,-2393,-0.732676775,-3123,-0.956184525
2023-11-10 13:33:51.376,7016,221987,172940,-4003,-1.225618525,-3124,-0.9564907
2023-11-10 13:33:51.376,7017,221998,172941,-3858,-1.18122315,-3149,-0.964145075
2023-11-10 13:33:51.376,7018,222016,172956,-2308,-0.7066519,-3137,-0.960470975
2023-11-10 13:33:51.376,7019,222027,172955,-3330,-1.01956275,-3124,-0.9564907
2023-11-10 13:33:51.376,7020,222046,172968,-4342,-1.32941185,-3145,-0.962920375
2023-11-10 13:33:51.408,7021,222058,172972,-2743,-0.839838025,-3141,-0.961695675
2023-11-10 13:33:51.408,7022,222070,172971,-2738,-0.83830715,-3115,-0.953735125
2023-11-10 13:33:51.408,7023,222081,172982,-4344,-1.3300242,-3128,-0.9577154
2023-11-10 13:33:51.408,7024,222102,172995,-3114,-0.95342895,-3143,-0.962308025
2023-11-10 13:33:51.408,7025,222115,172985,-2184,-0.6686862,-3123,-0.956184525
2023-11-10 13:33:51.408,7026,222140,173003,-3875,-1.186428125,-3129,-0.958021575
2023-11-10 13:33:51.441,7027,222152,173008,-3696,-1.1316228,-3159,-0.967206825
2023-11-10 13:33:51.441,7028,222160,173017,-2015,-0.616942625,-3154,-0.96567595
2023-11-10 13:33:51.441,7029,222191,173017,-3139,-0.961083325,-3146,-0.96322655
2023-11-10 13:33:51.441,7030,222204,173016,-4190,-1.28287325,-3174,-0.97179945
2023-11-10 13:33:51.473,7031,222229,173031,-2444,-0.7482917,-3187,-0.975779725
2023-11-10 13:33:51.473,7032,222246,173028,-2518,-0.77094865,-3187,-0.975779725
2023-11-10 13:33:51.473,7033,222253,173029,-4262,-1.30491785,-3224,-0.9871082
2023-11-10 13:33:51.473,7034,222277,173041,-3045,-0.932302875,-3256,-0.9969058
2023-11-10 13:33:51.473,7035,222297,173051,-2128,-0.6515404,-3251,-0.995374925
2023-11-10 13:33:51.473,7036,222308,173056,-3978,-1.21796415,-3266,-0.99996755
2023-11-10 13:33:51.473,7037,222333,173062,-3952,-1.2100036,-3300,-1.0103775
2023-11-10 13:33:51.506,7038,222358,173071,-2656,-0.8132008,-3297,-1.009458975
2023-11-10 13:33:51.506,7039,222369,173080,-4094,-1.25348045,-3292,-1.0079281
2023-11-10 13:33:51.506,7040,222379,173087,-5463,-1.672634025,-3324,-1.0177257
2023-11-10 13:33:51.506,7041,222408,173097,-4143,-1.268483025,-3333,-1.020481275
2023-11-10 13:33:51.506,7042,222416,173111,-4226,-1.29389555,-3312,-1.0140516
2023-11-10 13:33:51.506,7043,222442,173098,-5260,-1.6104805,-3317,-1.015582475
2023-11-10 13:33:51.538,7044,222450,173115,-3361,-1.029054175,-3316,-1.0152763
2023-11-10 13:33:51.538,7045,222499,173130,-1641,-0.502433175,-3273,-1.002110775
2023-11-10 13:33:51.538,7046,222498,173120,-3168,-0.9699624,-3247,-0.994150225
2023-11-10 13:33:51.538,7047,222501,173124,-3054,-0.93505845,-3247,-0.994150225
2023-11-10 13:33:51.538,7048,222540,173126,-1596,-0.4886553,-3216,-0.9846588
2023-11-10 13:33:51.538,7049,222549,173134,-3028,-0.9270979,-3184,-0.9748612
2023-11-10 13:33:51.538,7050,222569,173128,-3996,-1.2234753,-3189,-0.976392075
2023-11-10 13:33:51.538,7051,222576,173150,-2410,-0.73788175,-3176,-0.9724118
2023-11-10 13:33:51.562,7052,222615,173152,-2525,-0.773091875,-3142,-0.96200185
2023-11-10 13:33:51.562,7053,222600,173149,-4122,-1.26205335,-3148,-0.9638389
2023-11-10 13:33:51.562,7054,222610,173158,-2930,-0.89709275,-3167,-0.969656225
2023-11-10 13:33:51.562,7055,222642,173177,-1951,-0.597347425,-3171,-0.970880925
2023-11-10 13:33:51.562,7056,222646,173174,-3683,-1.127642525,-3226,-0.98772055
2023-11-10 13:33:51.562,7057,222665,173169,-3595,-1.100699125,-3336,-1.0213998
2023-11-10 13:33:51.562,7058,222679,173187,-2057,-0.629801975,-3443,-1.054160525
2023-11-10 13:33:51.597,7059,222706,173198,-3108,-0.9515919,-3566,-1.09182005
2023-11-10 13:33:51.597,7060,222718,173201,-3824,-1.1708132,-3719,-1.138664825
2023-11-10 13:33:51.597,7061,222737,173207,-2335,-0.714918625,-3815,-1.168057625
2023-11-10 13:33:51.597,7062,222761,173208,-2544,-0.7789092,-3837,-1.174793475
2023-11-10 13:33:51.597,7063,222768,173209,-4018,-1.23021115,-3844,-1.1769367
2023-11-10 13:33:51.625,7064,222787,173221,-2885,-0.883314875,-3810,-1.16652675
2023-11-10 13:33:51.625,7065,222793,173232,-2184,-0.6686862,-3710,-1.13590925
2023-11-10 13:33:51.625,7066,222810,173212,-3698,-1.13223515,-3617,-1.107434975
2023-11-10 13:33:51.625,7067,222839,173222,-3589,-1.098862075,-3539,-1.083553325
2023-11-10 13:33:51.625,7068,222857,173243,-2131,-0.652458925,-3421,-1.047424675
2023-11-10 13:33:51.625,7069,222859,173239,-3163,-0.968431525,-3293,-1.008234275
2023-11-10 13:33:51.625,7070,222865,173240,-3861,-1.182141675,-3191,-0.977004425
2023-11-10 13:33:51.658,7071,222869,173255,-2304,-0.7054272,-3066,-0.93873255
2023-11-10 13:33:51.658,7072,222895,173247,-2446,-0.74890405,-2937,-0.899235975
2023-11-10 13:33:51.658,7073,222879,173247,-3881,-1.188265175,-2883,-0.882702525
2023-11-10 13:33:51.658,7074,222913,173259,-2780,-0.8511665,-2879,-0.881477825
2023-11-10 13:33:51.658,7075,222942,173260,-2081,-0.637150175,-2888,-0.8842334
2023-11-10 13:33:51.658,7076,222957,173264,-3624,-1.1095782,-2946,-0.90199155
2023-11-10 13:33:51.687,7077,222970,173277,-3514,-1.07589895,-3027,-0.926791725
2023-11-10 13:33:51.687,7078,222970,173273,-2341,-0.716755675,-3053,-0.934752275
2023-11-10 13:33:51.687,7079,222985,173280,-3263,-0.999049025,-3051,-0.934139925
2023-11-10 13:33:51.687,7080,222974,173263,-4042,-1.23755935,-3054,-0.93505845
2023-11-10 13:33:51.687,7081,222966,173271,-2684,-0.8217737,-3026,-0.92648555
2023-11-10 13:33:51.719,7082,222936,173264,-2868,-0.8781099,-2988,-0.9148509
2023-11-10 13:33:51.719,7083,222901,173246,-4284,-1.3116537,-3005,-0.920055875
2023-11-10 13:33:51.719,7084,222824,173220,-3423,-1.048037025,-3037,-0.929853475
2023-11-10 13:33:51.719,7085,222744,173192,-2716,-0.8315713,-3036,-0.9295473
2023-11-10 13:33:51.719,7086,222657,173143,-4239,-1.297875825,-3045,-0.932302875
2023-11-10 13:33:51.719,7087,222575,173109,-3987,-1.220719725,-3060,-0.9368955
2023-11-10 13:33:51.719,7088,222446,173070,-2653,-0.812282275,-3038,-0.93015965
2023-11-10 13:33:51.756,7089,222345,173038,-3649,-1.117232575,-3018,-0.92403615
2023-11-10 13:33:51.756,7090,222222,172977,-4462,-1.36615285,-3033,-0.928628775
2023-11-10 13:33:51.756,7091,222153,172962,-2991,-0.915769425,-3031,-0.928016425
2023-11-10 13:33:51.756,7092,222030,172933,-3118,-0.95465365,-3010,-0.92158675
2023-11-10 13:33:51.756,7093,221943,172907,-4598,-1.40779265,-3016,-0.9234238
2023-11-10 13:33:51.756,7094,221883,172874,-3548,-1.0863089,-3019,-0.924342325
2023-11-10 13:33:51.784,7095,221816,172856,-2744,-0.8401442,-2994,-0.91668795
2023-11-10 13:33:51.784,7096,221767,172831,-4140,-1.2675645,-2996,-0.9173003
2023-11-10 13:33:51.784,7097,221739,172816,-3927,-1.202349225,-3026,-0.92648555
2023-11-10 13:33:51.784,7098,221683,172815,-2632,-0.8058526,-3036,-0.9295473
2023-11-10 13:33:51.784,7099,221664,172808,-3456,-1.0581408,-3056,-0.9356708
2023-11-10 13:33:51.814,7100,221648,172803,-4218,-1.29144615,-3112,-0.9528166
2023-11-10 13:33:51.814,7101,221649,172803,-2600,-0.796055,-3153,-0.965369775
2023-11-10 13:33:51.814,7102,221637,172792,-2533,-0.775541275,-3183,-0.974555025
2023-11-10 13:33:51.814,7103,221635,172793,-4027,-1.232966725,-3248,-0.9944564
2023-11-10 13:33:51.814,7104,221652,172795,-2808,-0.8597394,-3317,-1.015582475
2023-11-10 13:33:51.814,7105,221656,172800,-1957,-0.599184475,-3353,-1.026604775
2023-11-10 13:33:51.850,7106,221652,172785,-3345,-1.024155375,-3403,-1.041913525
2023-11-10 13:33:51.850,7107,221645,172783,-3373,-1.032728275,-3465,-1.060896375
2023-11-10 13:33:51.850,7108,221674,172792,-1944,-0.5952042,-3490,-1.06855075
2023-11-10 13:33:51.850,7109,221688,172804,-2838,-0.86892465,-3506,-1.07344955
2023-11-10 13:33:51.850,7110,221698,172785,-3644,-1.1157017,-3550,-1.08692125
2023-11-10 13:33:51.850,7111,221717,172810,-2105,-0.644498375,-3575,-1.094575625
2023-11-10 13:33:51.875,7112,221723,172814,-2157,-0.660419475,-3578,-1.09549415
2023-11-10 13:33:51.875,7113,221729,172808,-3900,-1.1940825,-3603,-1.103148525
2023-11-10 13:33:51.875,7114,221736,172825,-2900,-0.8879075,-3619,-1.108047325
2023-11-10 13:33:51.875,7115,221764,172820,-1976,-0.6050018,-3596,-1.1010053
2023-11-10 13:33:51.875,7116,221782,172826,-3534,-1.08202245,-3582,-1.09671885
2023-11-10 13:33:51.875,7117,221770,172832,-3357,-1.027829475,-3579,-1.095800325
2023-11-10 13:33:51.875,7118,221779,172822,-1851,-0.566729925,-3539,-1.083553325
2023-11-10 13:33:51.909,7119,221784,172823,-2869,-0.878416075,-3493,-1.069469275
2023-11-10 13:33:51.909,7120,221784,172838,-3796,-1.1622403,-3473,-1.063345775
2023-11-10 13:33:51.909,7121,221785,172811,-2317,-0.709407475,-3424,-1.0483432
2023-11-10 13:33:51.909,7122,221780,172828,-2325,-0.711856875,-3340,-1.0226245
2023-11-10 13:33:51.909,7123,221765,172824,-3786,-1.15917855,-3274,-1.00241695
2023-11-10 13:33:51.909,7124,221750,172804,-2801,-0.857596175,-3209,-0.982515575
2023-11-10 13:33:51.909,7125,221753,172805,-1957,-0.599184475,-3120,-0.955266
2023-11-10 13:33:51.938,7126,221745,172798,-3491,-1.068856925,-3056,-0.9356708
2023-11-10 13:33:51.938,7127,221731,172796,-3354,-1.02691095,-3017,-0.923729975
2023-11-10 13:33:51.938,7128,221721,172803,-2001,-0.612656175,-2782,-0.85177885
2023-11-10 13:33:51.938,7129,221736,172797,-2922,-0.89464335,-2767,-0.847186225
2023-11-10 13:33:51.938,7130,221732,172793,-3810,-1.16652675,-2776,-0.8499418
2023-11-10 13:33:51.938,7131,221743,172785,-2298,-0.70359015,-2790,-0.85422825
2023-11-10 13:33:51.971,7132,221746,172797,-2425,-0.742474375,-2787,-0.853309725
2023-11-10 13:33:51.971,7133,221764,172806,-3932,-1.2038801,-2797,-0.856371475
2023-11-10 13:33:51.971,7134,221761,172811,-2965,-0.907808875,-2821,-0.863719675
2023-11-10 13:33:51.971,7135,221756,172800,-2051,-0.627964925,-2825,-0.864944375
2023-11-10 13:33:51.971,7136,221761,172803,-3663,-1.121519025,-2825,-0.864944375
2023-11-10 13:33:51.971,7137,221769,172808,-3505,-1.073143375,-2844,-0.8707617
2023-11-10 13:33:51.971,7138,221748,172804,-1958,-0.59949065,-2850,-0.87259875
2023-11-10 13:33:51.999,7139,221772,172797,-2997,-0.917606475,-2843,-0.870455525
2023-11-10 13:33:51.999,7140,221752,172796,-3878,-1.18734665,-2871,-0.879028425
2023-11-10 13:33:51.999,7141,221753,172794,-2401,-0.735126175,-2880,-0.881784
2023-11-10 13:33:51.999,7142,221760,172800,-2452,-0.7507411,-2865,-0.877191375
2023-11-10 13:33:51.999,7143,221743,172790,-3981,-1.218882675,-2879,-0.881477825
2023-11-10 13:33:51.999,7144,221725,172805,-2868,-0.8781099,-2888,-0.8842334
2023-11-10 13:33:52.032,7145,221727,172774,-1981,-0.606532675,-2864,-0.8768852
2023-11-10 13:33:52.032,7146,221712,172770,-3660,-1.1206005,-2859,-0.875354325
2023-11-10 13:33:52.032,7147,221700,172769,-3547,-1.086002725,-2880,-0.881784
2023-11-10 13:33:52.032,7148,221680,172765,-2073,-0.634700775,-2876,-0.8805593
2023-11-10 13:33:52.032,7149,221686,172751,-3092,-0.9466931,-2873,-0.879640775
2023-11-10 13:33:52.062,7150,221658,172761,-3903,-1.195001025,-2906,-0.88974455
2023-11-10 13:33:52.062,7151,221683,172748,-2226,-0.68154555,-2918,-0.89341865
2023-11-10 13:33:52.062,7152,221643,172753,-2284,-0.6993037,-2906,-0.88974455
2023-11-10 13:33:52.062,7153,221659,172747,-3996,-1.2234753,-2925,-0.895561875
2023-11-10 13:33:52.062,7154,221655,172754,-2970,-0.90933975,-2948,-0.9026039
2023-11-10 13:33:52.062,7155,221651,172744,-2017,-0.617554975,-2940,-0.9001545
2023-11-10 13:33:52.062,7156,221646,172741,-3489,-1.068244575,-2951,-0.903522425
2023-11-10 13:33:52.095,7157,221667,172742,-3606,-1.10406705,-2981,-0.912707675
2023-11-10 13:33:52.095,7158,221650,172743,-2035,-0.623066125,-2977,-0.911482975
2023-11-10 13:33:52.095,7159,221661,172741,-2995,-0.916994125,-2968,-0.9087274
2023-11-10 13:33:52.095,7160,221667,172749,-3976,-1.2173518,-2989,-0.915157075
2023-11-10 13:33:52.095,7161,221685,172742,-2471,-0.756558425,-2991,-0.915769425
2023-11-10 13:33:52.095,7162,221686,172754,-2415,-0.739412625,-2971,-0.909645925
2023-11-10 13:33:52.128,7163,221702,172752,-3979,-1.218270325,-2985,-0.913932375
2023-11-10 13:33:52.128,7164,221709,172752,-2985,-0.913932375,-2999,-0.918218825
2023-11-10 13:33:52.128,7165,221724,172763,-2192,-0.6711356,-2979,-0.912095325
2023-11-10 13:33:52.128,7166,221719,172757,-3706,-1.13468455,-2979,-0.912095325
2023-11-10 13:33:52.128,7167,221755,172752,-3533,-1.081716275,-3000,-0.918525
2023-11-10 13:33:52.128,7168,221760,172773,-2067,-0.632863725,-2989,-0.915157075
2023-11-10 13:33:52.128,7169,221774,172777,-3039,-0.930465825,-2973,-0.910258275
2023-11-10 13:33:52.128,7170,221786,172771,-3937,-1.205410975,-2992,-0.9160756
2023-11-10 13:33:52.156,7171,221807,172788,-2384,-0.7299212,-2991,-0.915769425
2023-11-10 13:33:52.156,7172,221810,172785,-2341,-0.716755675,-2967,-0.908421225
2023-11-10 13:33:52.156,7173,221836,172778,-4091,-1.252561925,-2973,-0.910258275
2023-11-10 13:33:52.156,7174,221846,172785,-3032,-0.9283226,-2983,-0.913320025
2023-11-10 13:33:52.156,7175,221853,172794,-2053,-0.628577275,-2964,-0.9075027
2023-11-10 13:33:52.156,7176,221889,172801,-3621,-1.108659675,-2964,-0.9075027
2023-11-10 13:33:52.156,7177,221908,172798,-3505,-1.073143375,-2987,-0.914544725
2023-11-10 13:33:52.188,7178,221914,172823,-2179,-0.667155325,-2978,-0.91178915
2023-11-10 13:33:52.188,7179,221917,172813,-2997,-0.917606475,-2969,-0.909033575
2023-11-10 13:33:52.188,7180,221948,172829,-4168,-1.2761374,-2995,-0.916994125
2023-11-10 13:33:52.188,7181,221938,172814,-2667,-0.816568725,-3003,-0.919443525
2023-11-10 13:33:52.188,7182,221960,172820,-2493,-0.763294275,-2993,-0.916381775
2023-11-10 13:33:52.218,7183,221969,172816,-4075,-1.247663125,-3018,-0.92403615
2023-11-10 13:33:52.218,7184,221973,172830,-3074,-0.94118195,-3044,-0.9319967
2023-11-10 13:33:52.218,7185,221990,172840,-2218,-0.67909615,-3031,-0.928016425
2023-11-10 13:33:52.218,7186,222006,172834,-3753,-1.149074775,-3031,-0.928016425
2023-11-10 13:33:52.218,7187,222005,172841,-3753,-1.149074775,-3051,-0.934139925
2023-11-10 13:33:52.218,7188,222031,172846,-2339,-0.716143325,-3037,-0.929853475
2023-11-10 13:33:52.218,7189,222039,172847,-3293,-1.008234275,-3020,-0.9246485
2023-11-10 13:33:52.252,7190,222051,172852,-4279,-1.310122825,-3039,-0.930465825
2023-11-10 13:33:52.252,7191,222059,172851,-2593,-0.793911775,-3043,-0.931690525
2023-11-10 13:33:52.252,7192,222072,172863,-2596,-0.7948303,-3023,-0.925567025
2023-11-10 13:33:52.252,7193,222065,172864,-4190,-1.28287325,-3029,-0.927404075
2023-11-10 13:33:52.252,7194,222094,172863,-3189,-0.976392075,-3037,-0.929853475
2023-11-10 13:33:52.252,7195,222087,172863,-2178,-0.66684915,-3016,-0.9234238
2023-11-10 13:33:52.280,7196,222091,172879,-3655,-1.119069625,-3016,-0.9234238
2023-11-10 13:33:52.280,7197,222096,172868,-3597,-1.101311475,-3042,-0.93138435
2023-11-10 13:33:52.280,7198,222113,172859,-2249,-0.688587575,-3042,-0.93138435
2023-11-10 13:33:52.280,7199,222103,172870,-3010,-0.92158675,-3043,-0.931690525
2023-11-10 13:33:52.280,7200,222126,172861,-4004,-1.2259247,-3078,-0.94240665
2023-11-10 13:33:52.314,7201,222113,172866,-2526,-0.77339805,-3094,-0.94730545
2023-11-10 13:33:52.314,7202,222135,172882,-2460,-0.7531905,-3085,-0.944549875
2023-11-10 13:33:52.314,7203,222124,172874,-4183,-1.280730025,-3106,-0.95097955
2023-11-10 13:33:52.314,7204,222139,172884,-3166,-0.96935005,-3130,-0.95832775
2023-11-10 13:33:52.314,7205,222143,172886,-2136,-0.6539898,-3125,-0.956796875
2023-11-10 13:33:52.314,7206,222179,172884,-3644,-1.1157017,-3142,-0.96200185
2023-11-10 13:33:52.314,7207,222184,172892,-3792,-1.1610156,-3185,-0.975167375
2023-11-10 13:33:52.347,7208,222185,172896,-2423,-0.741862025,-3193,-0.977616775
2023-11-10 13:33:52.347,7209,222193,172894,-3568,-1.0924324,-3190,-0.97669825
2023-11-10 13:33:52.347,7210,222231,172906,-4823,-1.476682025,-3217,-0.984964975
2023-11-10 13:33:52.347,7211,222226,172900,-3542,-1.08447185,-3224,-0.9871082
2023-11-10 13:33:52.347,7212,222261,172922,-3999,-1.224393825,-3203,-0.980678525
2023-11-10 13:33:52.347,7213,222247,172912,-5782,-1.77030385,-3210,-0.98282175
2023-11-10 13:33:52.377,7214,222290,172932,-4176,-1.2785868,-3218,-0.98527115
2023-11-10 13:33:52.377,7215,222291,172934,-2621,-0.802484675,-3196,-0.9785353
2023-11-10 13:33:52.377,7216,222310,172943,-3313,-1.014357775,-3186,-0.97547355
2023-11-10 13:33:52.377,7217,222334,172943,-3039,-0.930465825,-3190,-0.97669825
2023-11-10 13:33:52.377,7218,222364,172944,-1593,-0.487736775,-3159,-0.967206825
2023-11-10 13:33:52.377,7219,222362,172966,-2641,-0.808608175,-3125,-0.956796875
2023-11-10 13:33:52.377,7220,222381,172961,-3841,-1.176018175,-3131,-0.958633925
2023-11-10 13:33:52.377,7221,222404,172978,-2375,-0.727165625,-3125,-0.956796875
2023-11-10 13:33:52.405,7222,222425,172973,-2355,-0.721042125,-3099,-0.948836325
2023-11-10 13:33:52.405,7223,222424,172995,-3906,-1.19591955,-3107,-0.951285725
2023-11-10 13:33:52.405,7224,222469,173003,-2931,-0.897398925,-3125,-0.956796875
2023-11-10 13:33:52.405,7225,222454,172996,-2031,-0.621841425,-3120,-0.955266
2023-11-10 13:33:52.405,7226,222471,172998,-3734,-1.14325745,-3142,-0.96200185
2023-11-10 13:33:52.405,7227,222496,173000,-3831,-1.172956425,-3207,-0.981903225
2023-11-10 13:33:52.405,7228,222514,173020,-2258,-0.69134315,-3265,-0.999661375
2023-11-10 13:33:52.438,7229,222520,173012,-3084,-0.9442437,-3353,-1.026604775
2023-11-10 13:33:52.438,7230,222522,173008,-4199,-1.285628825,-3501,-1.071918675
2023-11-10 13:33:52.438,7231,222526,173030,-2665,-0.815956375,-3628,-1.1108029
2023-11-10 13:33:52.438,7232,222550,173014,-2597,-0.795136475,-3703,-1.133766025
2023-11-10 13:33:52.438,7233,222563,173026,-4356,-1.3336983,-3762,-1.15183035
2023-11-10 13:33:52.471,7234,222570,173032,-3436,-1.0520173,-3776,-1.1561168
2023-11-10 13:33:52.471,7235,222573,173036,-2310,-0.70726425,-3718,-1.13835865
2023-11-10 13:33:52.471,7236,222578,173036,-3992,-1.2222506,-3648,-1.1169264
2023-11-10 13:33:52.471,7237,222601,173035,-3868,-1.1842849,-3585,-1.097637375
2023-11-10 13:33:52.471,7238,222626,173036,-2299,-0.703896325,-3484,-1.0667137
2023-11-10 13:33:52.471,7239,222637,173035,-3219,-0.985577325,-3375,-1.033340625
2023-11-10 13:33:52.471,7240,222641,173050,-4262,-1.30491785,-3287,-1.006397225
2023-11-10 13:33:52.499,7241,222645,173053,-2788,-0.8536159,-3166,-0.96935005
2023-11-10 13:33:52.499,7242,222649,173060,-2563,-0.784726525,-3020,-0.9246485
2023-11-10 13:33:52.499,7243,222664,173056,-4311,-1.319920425,-2927,-0.896174225
2023-11-10 13:33:52.499,7244,222708,173071,-3383,-1.035790025,-2882,-0.88239635
2023-11-10 13:33:52.499,7245,222708,173084,-2357,-0.721654475,-2854,-0.87382345
2023-11-10 13:33:52.499,7246,222724,173070,-3950,-1.20939125,-2888,-0.8842334
2023-11-10 13:33:52.533,7247,222745,173091,-4088,-1.2516434,-2978,-0.91178915
2023-11-10 13:33:52.533,7248,222757,173084,-2431,-0.744311425,-3048,-0.9332214
2023-11-10 13:33:52.533,7249,222765,173110,-3387,-1.037014725,-3101,-0.949448675
2023-11-10 13:33:52.533,7250,222794,173097,-4556,-1.3949333,-3164,-0.9687377
2023-11-10 13:33:52.533,7251,222789,173112,-2863,-0.876579025,-3189,-0.976392075
2023-11-10 13:33:52.566,7252,222790,173103,-2751,-0.842287425,-3181,-0.973942675
2023-11-10 13:33:52.566,7253,222787,173088,-4479,-1.371357825,-3212,-0.9834341
2023-11-10 13:33:52.566,7254,222732,173081,-3567,-1.092126225,-3257,-0.997211975
2023-11-10 13:33:52.566,7255,222684,173061,-2569,-0.786563575,-3271,-1.001498425
2023-11-10 13:33:52.566,7256,222626,173026,-4136,-1.2663398,-3294,-1.00854045
2023-11-10 13:33:52.566,7257,222537,173006,-4289,-1.313184575,-3327,-1.018644225
2023-11-10 13:33:52.566,7258,222449,172967,-2627,-0.804321725,-3314,-1.01466395
2023-11-10 13:33:52.599,7259,222319,172947,-3597,-1.101311475,-3289,-1.007009575
2023-11-10 13:33:52.599,7260,222227,172877,-4837,-1.480968475,-3305,-1.011908375
2023-11-10 13:33:52.599,7261,222108,172863,-3207,-0.981903225,-3315,-1.014970125
2023-11-10 13:33:52.599,7262,222009,172820,-3059,-0.936589325,-3305,-1.011908375
2023-11-10 13:33:52.599,7263,221906,172784,-4740,-1.4512695,-3326,-1.01833805
2023-11-10 13:33:52.599,7264,221804,172753,-3840,-1.175712,-3345,-1.024155375
2023-11-10 13:33:52.628,7265,221712,172723,-2771,-0.848410925,-3325,-1.018031875
2023-11-10 13:33:52.628,7266,221639,172698,-4191,-1.283179425,-3323,-1.017419525
2023-11-10 13:33:52.628,7267,221560,172680,-4178,-1.27919915,-3357,-1.027829475
2023-11-10 13:33:52.628,7268,221492,172639,-2717,-0.831877475,-3368,-1.0311974
2023-11-10 13:33:52.628,7269,221438,172634,-3452,-1.0569161,-3376,-1.0336468
2023-11-10 13:33:52.661,7270,221386,172603,-4444,-1.3606417,-3420,-1.0471185
2023-11-10 13:33:52.661,7271,221351,172611,-2650,-0.81136375,-3443,-1.054160525
2023-11-10 13:33:52.661,7272,221317,172589,-2539,-0.777378325,-3437,-1.052323475
2023-11-10 13:33:52.661,7273,221295,172591,-4178,-1.27919915,-3460,-1.0593655
2023-11-10 13:33:52.661,7274,221297,172582,-3199,-0.979453825,-3492,-1.0691631
2023-11-10 13:33:52.661,7275,221290,172577,-2065,-0.632251375,-3492,-1.0691631
2023-11-10 13:33:52.687,7276,221288,172572,-3465,-1.060896375,-3514,-1.07589895
2023-11-10 13:33:52.687,7277,221287,172582,-3643,-1.115395525,-3565,-1.091513875
2023-11-10 13:33:52.687,7278,221291,172587,-2076,-0.6356193,-3582,-1.09671885
2023-11-10 13:33:52.687,7279,221300,172589,-2898,-0.88729515,-3591,-1.099474425
2023-11-10 13:33:52.687,7280,221307,172592,-3891,-1.191326925,-3635,-1.112946125
2023-11-10 13:33:52.687,7281,221323,172603,-2342,-0.71706185,-3663,-1.121519025
2023-11-10 13:33:52.720,7282,221346,172600,-2241,-0.686138175,-3667,-1.122743725
2023-11-10 13:33:52.720,7283,221366,172620,-3894,-1.19224545,-3697,-1.131928975
2023-11-10 13:33:52.720,7284,221377,172608,-2857,-0.874741975,-3726,-1.14080805
2023-11-10 13:33:52.720,7285,221398,172612,-1893,-0.579589275,-3713,-1.136827775
2023-11-10 13:33:52.720,7286,221400,172621,-3482,-1.06610135,-3708,-1.1352969
2023-11-10 13:33:52.720,7287,221429,172641,-3587,-1.098249725,-3714,-1.13713395
2023-11-10 13:33:52.720,7288,221435,172636,-2018,-0.61786115,-3672,-1.1242746
2023-11-10 13:33:52.752,7289,221448,172635,-2807,-0.859433225,-3613,-1.106210275
2023-11-10 13:33:52.752,7290,221445,172637,-3894,-1.19224545,-3587,-1.098249725
2023-11-10 13:33:52.752,7291,221466,172638,-2486,-0.76115105,-3540,-1.0838595
2023-11-10 13:33:52.752,7292,221443,172630,-2227,-0.681851725,-3460,-1.0593655
2023-11-10 13:33:52.752,7293,221454,172643,-3937,-1.205410975,-3401,-1.041301175
2023-11-10 13:33:52.752,7294,221468,172630,-2990,-0.91546325,-3346,-1.02446155
2023-11-10 13:33:52.752,7295,221450,172639,-1930,-0.59091775,-3263,-0.999049025
2023-11-10 13:33:52.781,7296,221453,172634,-3558,-1.08937065,-3200,-0.97976
2023-11-10 13:33:52.781,7297,221457,172629,-3552,-1.0875336,-3165,-0.969043875
2023-11-10 13:33:52.781,7298,221438,172624,-1928,-0.5903054,-3104,-0.9503672
2023-11-10 13:33:52.781,7299,221445,172632,-2969,-0.909033575,-3047,-0.932915225
2023-11-10 13:33:52.781,7300,221441,172638,-4128,-1.2638904,-3031,-0.928016425
2023-11-10 13:33:52.781,7301,221446,172629,-2513,-0.769417775,-3000,-0.918525
2023-11-10 13:33:52.814,7302,221471,172645,-2367,-0.724716225,-2947,-0.902297725
2023-11-10 13:33:52.814,7303,221471,172640,-3940,-1.2063295,-2936,-0.8989298
2023-11-10 13:33:52.814,7304,221470,172641,-3081,-0.943325175,-2943,-0.901073025
2023-11-10 13:33:52.814,7305,221467,172637,-1958,-0.59949065,-2920,-0.894031
2023-11-10 13:33:52.814,7306,221488,172656,-3404,-1.0422197,-2912,-0.8915816
2023-11-10 13:33:52.814,7307,221476,172642,-3730,-1.14203275,-2929,-0.896786575
2023-11-10 13:33:52.814,7308,221476,172643,-2126,-0.65092805,-2917,-0.893112475
2023-11-10 13:33:52.847,7309,221468,172643,-2993,-0.916381775,-2903,-0.888826025
2023-11-10 13:33:52.847,7310,221470,172638,-4085,-1.250724875,-2925,-0.895561875
2023-11-10 13:33:52.847,7311,221461,172621,-2312,-0.7078766,-2933,-0.898011275
2023-11-10 13:33:52.847,7312,221452,172627,-2234,-0.68399495,-2919,-0.893724825
2023-11-10 13:33:52.847,7313,221435,172611,-4138,-1.26695215,-2938,-0.89954215
2023-11-10 13:33:52.847,7314,221434,172624,-3130,-0.95832775,-2959,-0.905971825
2023-11-10 13:33:52.875,7315,221420,172607,-2154,-0.65950095,-2940,-0.9001545
2023-11-10 13:33:52.875,7316,221416,172597,-3671,-1.123968425,-2938,-0.89954215
2023-11-10 13:33:52.875,7317,221382,172592,-3738,-1.14448215,-2968,-0.9087274
2023-11-10 13:33:52.875,7318,221376,172592,-2106,-0.64480455,-2970,-0.90933975
2023-11-10 13:33:52.875,7319,221367,172589,-2929,-0.896786575,-2964,-0.9075027
2023-11-10 13:33:52.908,7320,221354,172588,-4112,-1.2589916,-2992,-0.9160756
2023-11-10 13:33:52.908,7321,221354,172589,-2421,-0.741249675,-3004,-0.9197497
2023-11-10 13:33:52.908,7322,221343,172589,-2110,-0.64602925,-2988,-0.9148509
2023-11-10 13:33:52.908,7323,221339,172591,-4061,-1.243376675,-2999,-0.918218825
2023-11-10 13:33:52.908,7324,221311,172588,-3205,-0.981290875,-3014,-0.92281145
2023-11-10 13:33:52.908,7325,221326,172579,-2071,-0.634088425,-2999,-0.918218825
2023-11-10 13:33:52.908,7326,221327,172582,-3620,-1.1083535,-3005,-0.920055875
2023-11-10 13:33:52.936,7327,221332,172594,-3593,-1.100086775,-3035,-0.929241125
2023-11-10 13:33:52.936,7328,221336,172580,-2063,-0.631639025,-3025,-0.926179375
2023-11-10 13:33:52.936,7329,221356,172587,-2965,-0.907808875,-3005,-0.920055875
2023-11-10 13:33:52.936,7330,221353,172595,-4018,-1.23021115,-3023,-0.925567025
2023-11-10 13:33:52.936,7331,221353,172603,-2496,-0.7642128,-3027,-0.926791725
2023-11-10 13:33:52.936,7332,221367,172601,-2279,-0.697772825,-3008,-0.9209744
2023-11-10 13:33:52.970,7333,221388,172606,-3956,-1.2112283,-3024,-0.9258732
2023-11-10 13:33:52.970,7334,221393,172600,-3072,-0.9405696,-3053,-0.934752275
2023-11-10 13:33:52.970,7335,221410,172618,-1953,-0.597959775,-3048,-0.9332214
2023-11-10 13:33:52.970,7336,221429,172614,-3593,-1.100086775,-3055,-0.935364625
2023-11-10 13:33:52.970,7337,221443,172637,-3676,-1.1254993,-3082,-0.94363135
2023-11-10 13:33:53.006,7338,221463,172628,-1991,-0.609594425,-3069,-0.939651075
2023-11-10 13:33:53.006,7339,221472,172638,-3013,-0.922505275,-3044,-0.9319967
2023-11-10 13:33:53.006,7340,221490,172658,-4107,-1.257460725,-3058,-0.93628315
2023-11-10 13:33:53.031,7341,221513,172657,-2495,-0.763906625,-3061,-0.937201675
2023-11-10 13:33:53.031,7342,221541,172662,-2322,-0.71093835,-3042,-0.93138435
2023-11-10 13:33:53.031,7343,221550,172667,-4038,-1.23633465,-3053,-0.934752275
2023-11-10 13:33:53.031,7344,221577,172678,-3159,-0.967206825,-3066,-0.93873255
2023-11-10 13:33:53.031,7345,221592,172687,-2018,-0.61786115,-3039,-0.930465825
2023-11-10 13:33:53.031,7346,221621,172680,-3571,-1.093350925,-3027,-0.926791725
2023-11-10 13:33:53.061,7347,221646,172701,-3664,-1.1218252,-3041,-0.931078175
2023-11-10 13:33:53.061,7348,221656,172714,-1948,-0.5964289,-3024,-0.9258732
2023-11-10 13:33:53.061,7349,221687,172712,-2830,-0.86647525,-3006,-0.92036205
2023-11-10 13:33:53.061,7350,221709,172721,-4051,-1.240314925,-3032,-0.9283226
2023-11-10 13:33:53.061,7351,221743,172733,-2556,-0.7825833,-3041,-0.931078175
2023-11-10 13:33:53.061,7352,221766,172731,-2337,-0.715530975,-3018,-0.92403615
2023-11-10 13:33:53.061,7353,221758,172746,-3975,-1.217045625,-3021,-0.924954675
2023-11-10 13:33:53.061,7354,221773,172753,-3135,-0.959858625,-3030,-0.92771025
2023-11-10 13:33:53.094,7355,221812,172759,-2089,-0.639599575,-3005,-0.920055875
2023-11-10 13:33:53.094,7356,221812,172753,-3653,-1.118457275,-2999,-0.918218825
2023-11-10 13:33:53.094,7357,221825,172766,-3832,-1.1732626,-3024,-0.9258732
2023-11-10 13:33:53.094,7358,221851,172773,-2152,-0.6588886,-3018,-0.92403615
2023-11-10 13:33:53.094,7359,221866,172795,-3046,-0.93260905,-3007,-0.920668225
2023-11-10 13:33:53.094,7360,221886,172789,-4197,-1.285016475,-3033,-0.928628775
2023-11-10 13:33:53.094,7361,221905,172802,-2555,-0.782277125,-3044,-0.9319967
2023-11-10 13:33:53.130,7362,221912,172784,-2503,-0.766356025,-3026,-0.92648555
2023-11-10 13:33:53.130,7363,221942,172806,-4202,-1.28654735,-3038,-0.93015965
2023-11-10 13:33:53.130,7364,221931,172815,-3261,-0.998436675,-3054,-0.93505845
2023-11-10 13:33:53.130,7365,221946,172812,-2161,-0.661644175,-3034,-0.92893495
2023-11-10 13:33:53.130,7366,221947,172808,-3608,-1.1046794,-3028,-0.9270979
2023-11-10 13:33:53.130,7367,221971,172812,-3755,-1.149687125,-3047,-0.932915225
2023-11-10 13:33:53.159,7368,221975,172820,-2107,-0.645110725,-3033,-0.928628775
2023-11-10 13:33:53.159,7369,221988,172821,-2928,-0.8964804,-3011,-0.921892925
2023-11-10 13:33:53.159,7370,221983,172820,-4036,-1.2357223,-3026,-0.92648555
2023-11-10 13:33:53.159,7371,222015,172829,-2488,-0.7617634,-3029,-0.927404075
2023-11-10 13:33:53.159,7372,222005,172824,-2252,-0.6895061,-3010,-0.92158675
2023-11-10 13:33:53.159,7373,222019,172837,-3943,-1.207248025,-3026,-0.92648555
2023-11-10 13:33:53.159,7374,222056,172838,-3139,-0.961083325,-3050,-0.93383375
2023-11-10 13:33:53.191,7375,222032,172855,-2003,-0.613268525,-3039,-0.930465825
2023-11-10 13:33:53.191,7376,222045,172850,-3454,-1.05752845,-3047,-0.932915225
2023-11-10 13:33:53.191,7377,222067,172849,-3604,-1.1034547,-3085,-0.944549875
2023-11-10 13:33:53.191,7378,222048,172843,-2123,-0.650009525,-3091,-0.946386925
2023-11-10 13:33:53.191,7379,222089,172847,-3053,-0.934752275,-3091,-0.946386925
2023-11-10 13:33:53.191,7380,222074,172852,-4212,-1.2896091,-3128,-0.9577154
2023-11-10 13:33:53.191,7381,222104,172873,-2697,-0.825753975,-3148,-0.9638389
2023-11-10 13:33:53.220,7382,222099,172867,-2850,-0.87259875,-3137,-0.960470975
2023-11-10 13:33:53.220,7383,222127,172878,-4920,-1.506381,-3151,-0.964757425
2023-11-10 13:33:53.220,7384,222146,172871,-4499,-1.377481325,-3167,-0.969656225
2023-11-10 13:33:53.220,7385,222170,172890,-3644,-1.1157017,-3146,-0.96322655
2023-11-10 13:33:53.220,7386,222170,172902,-4972,-1.5223021,-3138,-0.96077715
2023-11-10 13:33:53.249,7387,222184,172897,-4524,-1.3851357,-3152,-0.9650636
2023-11-10 13:33:53.249,7388,222206,172910,-2041,-0.624903175,-3130,-0.95832775
2023-11-10 13:33:53.249,7389,222233,172914,-2368,-0.7250224,-3098,-0.94853015
2023-11-10 13:33:53.249,7390,222249,172919,-3558,-1.08937065,-3099,-0.948836325
2023-11-10 13:33:53.249,7391,222260,172924,-1983,-0.607145025,-3086,-0.94485605
2023-11-10 13:33:53.249,7392,222268,172926,-1980,-0.6062265,-3049,-0.933527575
2023-11-10 13:33:53.249,7393,222299,172944,-3978,-1.21796415,-3042,-0.93138435
2023-11-10 13:33:53.282,7394,222303,172945,-3123,-0.956184525,-3042,-0.93138435
2023-11-10 13:33:53.282,7395,222320,172956,-1928,-0.5903054,-3011,-0.921892925
2023-11-10 13:33:53.282,7396,222336,172951,-3484,-1.0667137,-3002,-0.91913735
2023-11-10 13:33:53.282,7397,222366,172976,-3760,-1.151218,-3028,-0.9270979
2023-11-10 13:33:53.282,7398,222366,172976,-2078,-0.63623165,-3033,-0.928628775
2023-11-10 13:33:53.282,7399,222401,172976,-2850,-0.87259875,-3048,-0.9332214
2023-11-10 13:33:53.315,7400,222402,172988,-4003,-1.225618525,-3125,-0.956796875
2023-11-10 13:33:53.315,7401,222427,172990,-2548,-0.7801339,-3218,-0.98527115
2023-11-10 13:33:53.315,7402,222451,172995,-2252,-0.6895061,-3312,-1.0140516
2023-11-10 13:33:53.315,7403,222469,173014,-3793,-1.161321775,-3448,-1.0556914
2023-11-10 13:33:53.315,7404,222482,173020,-3292,-1.0079281,-3582,-1.09671885
2023-11-10 13:33:53.348,7405,222483,173016,-2222,-0.68032085,-3646,-1.11631405
2023-11-10 13:33:53.348,7406,222511,173008,-3687,-1.128867225,-3674,-1.12488695
2023-11-10 13:33:53.348,7407,222531,173026,-3758,-1.15060565,-3681,-1.127030175
2023-11-10 13:33:53.348,7408,222552,173026,-2081,-0.637150175,-3620,-1.1083535
2023-11-10 13:33:53.348,7409,222561,173046,-2894,-0.88607045,-3531,-1.081103925
2023-11-10 13:33:53.348,7410,222588,173046,-4206,-1.28777205,-3471,-1.062733425
2023-11-10 13:33:53.348,7411,222603,173060,-2775,-0.849635625,-3392,-1.0385456
2023-11-10 13:33:53.348,7412,222603,173066,-2495,-0.763906625,-3277,-1.003335475
2023-11-10 13:33:53.377,7413,222618,173069,-4132,-1.2651151,-3182,-0.97424885
2023-11-10 13:33:53.377,7414,222651,173075,-3374,-1.03303445,-3087,-0.945162225
2023-11-10 13:33:53.377,7415,222669,173085,-2287,-0.700222225,-2962,-0.90689035
2023-11-10 13:33:53.377,7416,222694,173088,-3740,-1.1450945,-2875,-0.880253125
2023-11-10 13:33:53.377,7417,222714,173092,-3844,-1.1769367,-2854,-0.87382345
2023-11-10 13:33:53.377,7418,222729,173101,-2221,-0.680014675,-2847,-0.871680225
2023-11-10 13:33:53.406,7419,222727,173105,-3139,-0.961083325,-2871,-0.879028425
2023-11-10 13:33:53.406,7420,222744,173093,-4432,-1.3569676,-2951,-0.903522425
2023-11-10 13:33:53.406,7421,222759,173081,-2800,-0.85729,-3014,-0.92281145
2023-11-10 13:33:53.406,7422,222746,173101,-2662,-0.81503785,-3031,-0.928016425
2023-11-10 13:33:53.406,7423,222748,173111,-4380,-1.3410465,-3054,-0.93505845
2023-11-10 13:33:53.406,7424,222722,173107,-3469,-1.062121075,-3063,-0.937814025
2023-11-10 13:33:53.406,7425,222688,173073,-2277,-0.697160475,-3032,-0.9283226
2023-11-10 13:33:53.439,7426,222620,173055,-3989,-1.221332075,-3027,-0.926791725
2023-11-10 13:33:53.439,7427,222544,173016,-4141,-1.267870675,-3069,-0.939651075
2023-11-10 13:33:53.439,7428,222456,172993,-2729,-0.835551575,-3091,-0.946386925
2023-11-10 13:33:53.439,7429,222329,172939,-3483,-1.066407525,-3098,-0.94853015
2023-11-10 13:33:53.439,7430,222208,172908,-4644,-1.4218767,-3130,-0.95832775
2023-11-10 13:33:53.439,7431,222065,172860,-3174,-0.97179945,-3146,-0.96322655
2023-11-10 13:33:53.439,7432,221942,172810,-2927,-0.896174225,-3139,-0.961083325
2023-11-10 13:33:53.467,7433,221804,172749,-4605,-1.409935875,-3164,-0.9687377
2023-11-10 13:33:53.467,7434,221662,172713,-3839,-1.175405825,-3196,-0.9785353
2023-11-10 13:33:53.467,7435,221565,172677,-2705,-0.828203375,-3192,-0.9773106
2023-11-10 13:33:53.467,7436,221449,172628,-4233,-1.296038775,-3201,-0.980066175
2023-11-10 13:33:53.467,7437,221328,172603,-4540,-1.3900345,-3234,-0.99016995
2023-11-10 13:33:53.500,7438,221244,172572,-2821,-0.863719675,-3235,-0.990476125
2023-11-10 13:33:53.500,7439,221144,172542,-3471,-1.062733425,-3230,-0.98894525
2023-11-10 13:33:53.500,7440,221075,172514,-4679,-1.432592825,-3269,-1.000886075
2023-11-10 13:33:53.500,7441,221006,172497,-3207,-0.981903225,-3298,-1.00976515
2023-11-10 13:33:53.500,7442,220958,172483,-2810,-0.86035175,-3296,-1.0091528
2023-11-10 13:33:53.500,7443,220919,172462,-4358,-1.33431065,-3317,-1.015582475
2023-11-10 13:33:53.500,7444,220879,172445,-3443,-1.054160525,-3344,-1.0238492
2023-11-10 13:33:53.533,7445,220844,172439,-2139,-0.654908325,-3345,-1.024155375
2023-11-10 13:33:53.533,7446,220803,172433,-3721,-1.139277175,-3370,-1.03180975
2023-11-10 13:33:53.533,7447,220815,172425,-3906,-1.19591955,-3428,-1.0495679
2023-11-10 13:33:53.533,7448,220822,172437,-2139,-0.654908325,-3458,-1.05875315
2023-11-10 13:33:53.533,7449,220797,172420,-2801,-0.857596175,-3479,-1.065182825
2023-11-10 13:33:53.533,7450,220795,172438,-3954,-1.21061595,-3531,-1.081103925
2023-11-10 13:33:53.562,7451,220810,172434,-2469,-0.755946075,-3563,-1.090901525
2023-11-10 13:33:53.562,7452,220830,172438,-2216,-0.6784838,-3566,-1.09182005
2023-11-10 13:33:53.562,7453,220834,172450,-3955,-1.210922125,-3601,-1.102536175
2023-11-10 13:33:53.562,7454,220849,172451,-3165,-0.969043875,-3648,-1.1169264
2023-11-10 13:33:53.562,7455,220864,172444,-1967,-0.602246225,-3661,-1.120906675
2023-11-10 13:33:53.596,7456,220882,172465,-3453,-1.057222275,-3681,-1.127030175
2023-11-10 13:33:53.596,7457,220885,172468,-3639,-1.114170825,-3720,-1.138971
2023-11-10 13:33:53.596,7458,220892,172473,-2013,-0.616330275,-3720,-1.138971
2023-11-10 13:33:53.596,7459,220901,172471,-2701,-0.826978675,-3699,-1.132541325
2023-11-10 13:33:53.596,7460,220902,172483,-3992,-1.2222506,-3699,-1.132541325
2023-11-10 13:33:53.596,7461,220909,172476,-2485,-0.760844875,-3676,-1.1254993
2023-11-10 13:33:53.596,7462,220900,172466,-2264,-0.6931802,-3620,-1.1083535
2023-11-10 13:33:53.629,7463,220910,172477,-3812,-1.1671391,-3592,-1.0997806
2023-11-10 13:33:53.629,7464,220907,172471,-3007,-0.920668225,-3567,-1.092126225
2023-11-10 13:33:53.629,7465,220896,172468,-1953,-0.597959775,-3493,-1.069469275
2023-11-10 13:33:53.629,7466,220884,172463,-3670,-1.12366225,-3419,-1.046812325
2023-11-10 13:33:53.629,7467,220868,172461,-3868,-1.1842849,-3368,-1.0311974
2023-11-10 13:33:53.629,7468,220866,172459,-2195,-0.672054125,-3288,-1.0067034
2023-11-10 13:33:53.661,7469,220848,172451,-2728,-0.8352454,-3205,-0.981290875
2023-11-10 13:33:53.661,7470,220851,172466,-4033,-1.234803775,-3168,-0.9699624
2023-11-10 13:33:53.661,7471,220835,172453,-2674,-0.81871195,-3127,-0.957409225
2023-11-10 13:33:53.661,7472,220830,172448,-2305,-0.705733375,-3067,-0.939038725
2023-11-10 13:33:53.661,7473,220821,172451,-4045,-1.238477875,-3043,-0.931690525
2023-11-10 13:33:53.661,7474,220821,172465,-3233,-0.989863775,-3031,-0.928016425
2023-11-10 13:33:53.661,7475,220831,172440,-2043,-0.625515525,-2988,-0.9148509
2023-11-10 13:33:53.661,7476,220839,172455,-3425,-1.048649375,-2966,-0.90811505
2023-11-10 13:33:53.687,7477,220852,172466,-3783,-1.158260025,-2981,-0.912707675
2023-11-10 13:33:53.687,7478,220861,172464,-2293,-0.702059275,-2970,-0.90933975
2023-11-10 13:33:53.687,7479,220858,172471,-2980,-0.9124015,-2951,-0.903522425
2023-11-10 13:33:53.687,7480,220841,172463,-4155,-1.272157125,-2965,-0.907808875
2023-11-10 13:33:53.687,7481,220847,172450,-2765,-0.846573875,-2963,-0.907196525
2023-11-10 13:33:53.687,7482,220862,172460,-2405,-0.736350875,-2939,-0.899848325
2023-11-10 13:33:53.687,7483,220847,172456,-3941,-1.206635675,-2953,-0.904134775
2023-11-10 13:33:53.720,7484,220866,172472,-3130,-0.95832775,-2982,-0.91301385
2023-11-10 13:33:53.720,7485,220864,172459,-2096,-0.6417428,-2974,-0.91056445
2023-11-10 13:33:53.720,7486,220853,172471,-3604,-1.1034547,-2975,-0.910870625
2023-11-10 13:33:53.720,7487,220838,172463,-3833,-1.173568775,-3005,-0.920055875
2023-11-10 13:33:53.720,7488,220820,172454,-2242,-0.68644435,-3010,-0.92158675
2023-11-10 13:33:53.749,7489,220823,172451,-2944,-0.9013792,-3008,-0.9209744
2023-11-10 13:33:53.749,7490,220822,172449,-4007,-1.226843225,-3040,-0.930772
2023-11-10 13:33:53.749,7491,220816,172448,-2619,-0.801872325,-3058,-0.93628315
2023-11-10 13:33:53.749,7492,220828,172436,-2394,-0.73298295,-3048,-0.9332214
2023-11-10 13:33:53.749,7493,220803,172446,-4127,-1.263584225,-3063,-0.937814025
2023-11-10 13:33:53.749,7494,220810,172454,-3297,-1.009458975,-3082,-0.94363135
2023-11-10 13:33:53.749,7495,220824,172445,-2096,-0.6417428,-3067,-0.939038725
2023-11-10 13:33:53.781,7496,220809,172446,-3493,-1.069469275,-3066,-0.93873255
2023-11-10 13:33:53.781,7497,220813,172446,-3765,-1.152748875,-3095,-0.947611625
2023-11-10 13:33:53.781,7498,220798,172446,-2300,-0.7042025,-3097,-0.948223975
2023-11-10 13:33:53.781,7499,220821,172453,-2907,-0.890050725,-3087,-0.945162225
2023-11-10 13:33:53.781,7500,220821,172454,-4155,-1.272157125,-3110,-0.95220425
2023-11-10 13:33:53.781,7501,220815,172457,-2689,-0.823304575,-3118,-0.95465365
2023-11-10 13:33:53.818,7502,220838,172459,-2301,-0.704508675,-3100,-0.9491425
2023-11-10 13:33:53.818,7503,220838,172466,-3902,-1.19469485,-3110,-0.95220425
2023-11-10 13:33:53.818,7504,220862,172460,-3262,-0.99874285,-3129,-0.958021575
2023-11-10 13:33:53.818,7505,220844,172476,-2071,-0.634088425,-3111,-0.952510425
2023-11-10 13:33:53.818,7506,220861,172470,-3344,-1.0238492,-3105,-0.950673375
2023-11-10 13:33:53.846,7507,220875,172478,-3910,-1.19714425,-3126,-0.95710305
2023-11-10 13:33:53.846,7508,220894,172482,-2235,-0.684301125,-3118,-0.95465365
2023-11-10 13:33:53.846,7509,220893,172486,-2837,-0.868618475,-3099,-0.948836325
2023-11-10 13:33:53.846,7510,220921,172487,-4022,-1.23143585,-3112,-0.9528166
2023-11-10 13:33:53.846,7511,220935,172508,-2643,-0.809220525,-3114,-0.95342895
2023-11-10 13:33:53.846,7512,220968,172519,-2393,-0.732676775,-3093,-0.946999275
2023-11-10 13:33:53.846,7513,220984,172509,-3962,-1.21306535,-3102,-0.94975485
2023-11-10 13:33:53.879,7514,221004,172515,-3147,-0.963532725,-3124,-0.9564907
2023-11-10 13:33:53.879,7515,221020,172519,-1996,-0.6111253,-3113,-0.953122775
2023-11-10 13:33:53.879,7516,221051,172542,-3441,-1.053548175,-3110,-0.95220425
2023-11-10 13:33:53.879,7517,221058,172549,-3829,-1.172344075,-3130,-0.95832775
2023-11-10 13:33:53.879,7518,221106,172551,-2058,-0.63010815,-3120,-0.955266
2023-11-10 13:33:53.879,7519,221125,172560,-2770,-0.84810475,-3100,-0.9491425
2023-11-10 13:33:53.908,7520,221139,172584,-4135,-1.266033625,-3115,-0.953735125
2023-11-10 13:33:53.908,7521,221172,172580,-2628,-0.8046279,-3119,-0.954959825
2023-11-10 13:33:53.908,7522,221216,172608,-2306,-0.70603955,-3095,-0.947611625
2023-11-10 13:33:53.908,7523,221216,172611,-3980,-1.2185765,-3094,-0.94730545
2023-11-10 13:33:53.908,7524,221243,172618,-3274,-1.00241695,-3104,-0.9503672
2023-11-10 13:33:53.908,7525,221262,172629,-1938,-0.59336715,-3080,-0.943019
2023-11-10 13:33:53.908,7526,221299,172648,-3393,-1.038851775,-3069,-0.939651075
2023-11-10 13:33:53.908,7527,221325,172648,-3877,-1.187040475,-3086,-0.94485605
2023-11-10 13:33:53.936,7528,221351,172644,-2156,-0.6601133,-3078,-0.94240665
2023-11-10 13:33:53.936,7529,221361,172655,-2699,-0.826366325,-3062,-0.93750785
2023-11-10 13:33:53.936,7530,221406,172676,-4085,-1.250724875,-3079,-0.942712825
2023-11-10 13:33:53.936,7531,221398,172676,-2576,-0.7887068,-3079,-0.942712825
2023-11-10 13:33:53.936,7532,221408,172683,-2035,-0.623066125,-3050,-0.93383375
2023-11-10 13:33:53.936,7533,221415,172685,-3934,-1.20449245,-3052,-0.9344461
2023-11-10 13:33:53.936,7534,221444,172701,-3372,-1.0324221,-3071,-0.940263425
2023-11-10 13:33:53.969,7535,221455,172695,-2018,-0.61786115,-3053,-0.934752275
2023-11-10 13:33:53.969,7536,221458,172707,-3414,-1.04528145,-3041,-0.931078175
2023-11-10 13:33:53.969,7537,221466,172704,-3853,-1.179692275,-3058,-0.93628315
2023-11-10 13:33:53.969,7538,221496,172700,-2126,-0.65092805,-3048,-0.9332214
2023-11-10 13:33:53.969,7539,221499,172703,-2814,-0.86157645,-3029,-0.927404075
2023-11-10 13:33:54.002,7540,221515,172713,-4269,-1.307061075,-3044,-0.9319967
2023-11-10 13:33:54.002,7541,221516,172716,-2825,-0.864944375,-3050,-0.93383375
2023-11-10 13:33:54.002,7542,221531,172724,-2263,-0.692874025,-3030,-0.92771025
2023-11-10 13:33:54.034,7543,221527,172723,-3932,-1.2038801,-3038,-0.93015965
2023-11-10 13:33:54.034,7544,221571,172717,-3259,-0.997824325,-3057,-0.935976975
2023-11-10 13:33:54.034,7545,221569,172731,-2100,-0.6429675,-3040,-0.930772
2023-11-10 13:33:54.034,7546,221583,172725,-3530,-1.08079775,-3032,-0.9283226
2023-11-10 13:33:54.034,7547,221590,172742,-3807,-1.165608225,-3054,-0.93505845
2023-11-10 13:33:54.034,7548,221615,172748,-2174,-0.66562445,-3045,-0.932302875
2023-11-10 13:33:54.064,7549,221613,172747,-2717,-0.831877475,-3019,-0.924342325
2023-11-10 13:33:54.064,7550,221648,172753,-4101,-1.255623675,-3029,-0.927404075
2023-11-10 13:33:54.064,7551,221658,172781,-2584,-0.7911562,-3032,-0.9283226
2023-11-10 13:33:54.064,7552,221685,172788,-2160,-0.661338,-3007,-0.920668225
2023-11-10 13:33:54.064,7553,221709,172787,-3935,-1.204798625,-3012,-0.9221991
2023-11-10 13:33:54.064,7554,221711,172788,-3127,-0.957409225,-3032,-0.9283226
2023-11-10 13:33:54.093,7555,221722,172798,-1864,-0.5707102,-3016,-0.9234238
2023-11-10 13:33:54.093,7556,221752,172806,-3299,-1.010071325,-3013,-0.922505275
2023-11-10 13:33:54.093,7557,221777,172829,-3694,-1.13101045,-3047,-0.932915225
2023-11-10 13:33:54.093,7558,221795,172826,-2080,-0.636844,-3054,-0.93505845
2023-11-10 13:33:54.093,7559,221811,172836,-2646,-0.81013905,-3048,-0.9332214
2023-11-10 13:33:54.093,7560,221849,172848,-3993,-1.222556775,-3077,-0.942100475
2023-11-10 13:33:54.093,7561,221865,172854,-2554,-0.78197095,-3093,-0.946999275
2023-11-10 13:33:54.130,7562,221865,172850,-2334,-0.71461245,-3079,-0.942712825
2023-11-10 13:33:54.130,7563,221900,172877,-4373,-1.338903275,-3093,-0.946999275
2023-11-10 13:33:54.130,7564,221900,172870,-3950,-1.20939125,-3115,-0.953735125
2023-11-10 13:33:54.130,7565,221932,172880,-3172,-0.9711871,-3097,-0.948223975
2023-11-10 13:33:54.130,7566,221951,172892,-4888,-1.4965834,-3086,-0.94485605
2023-11-10 13:33:54.130,7567,221976,172890,-5384,-1.6484462,-3102,-0.94975485
2023-11-10 13:33:54.130,7568,221983,172910,-3134,-0.95955245,-3087,-0.945162225
2023-11-10 13:33:54.156,7569,222023,172924,-2987,-0.914544725,-3056,-0.9356708
2023-11-10 13:33:54.156,7570,222029,172917,-3486,-1.06732605,-3062,-0.93750785
2023-11-10 13:33:54.156,7571,222053,172939,-1905,-0.583263375,-3057,-0.935976975
2023-11-10 13:33:54.156,7572,222060,172935,-1686,-0.51621105,-3020,-0.9246485
2023-11-10 13:33:54.156,7573,222090,172943,-3454,-1.05752845,-3008,-0.9209744
2023-11-10 13:33:54.189,7574,222108,172950,-2845,-0.871067875,-3008,-0.9209744
2023-11-10 13:33:54.189,7575,222131,172948,-1772,-0.5425421,-2977,-0.911482975
2023-11-10 13:33:54.189,7576,222136,172968,-3331,-1.019868925,-2960,-0.906278
2023-11-10 13:33:54.189,7577,222158,172983,-3642,-1.11508935,-2973,-0.910258275
2023-11-10 13:33:54.189,7578,222189,172991,-1934,-0.59214245,-2959,-0.905971825
2023-11-10 13:33:54.189,7579,222210,172976,-2579,-0.789625325,-2941,-0.900460675
2023-11-10 13:33:54.189,7580,222221,172993,-4000,-1.2247,-2976,-0.9111768
2023-11-10 13:33:54.217,7581,222251,172994,-2506,-0.76727455,-3024,-0.9258732
2023-11-10 13:33:54.217,7582,222264,173002,-2174,-0.66562445,-3075,-0.941488125
2023-11-10 13:33:54.217,7583,222284,173013,-3903,-1.195001025,-3190,-0.97669825
2023-11-10 13:33:54.217,7584,222315,173030,-3161,-0.967819175,-3339,-1.022318325
2023-11-10 13:33:54.217,7585,222343,173034,-1982,-0.60683885,-3452,-1.0569161
2023-11-10 13:33:54.217,7586,222360,173050,-3335,-1.021093625,-3542,-1.08447185
2023-11-10 13:33:54.250,7587,222371,173047,-3642,-1.11508935,-3612,-1.1059041
2023-11-10 13:33:54.250,7588,222399,173069,-2141,-0.655520675,-3604,-1.1034547
2023-11-10 13:33:54.250,7589,222431,173083,-2736,-0.8376948,-3549,-1.086615075
2023-11-10 13:33:54.250,7590,222453,173095,-4018,-1.23021115,-3502,-1.07222485
2023-11-10 13:33:54.280,7591,222478,173090,-2591,-0.793299425,-3424,-1.0483432
2023-11-10 13:33:54.280,7592,222492,173091,-2130,-0.65215275,-3309,-1.013133075
2023-11-10 13:33:54.280,7593,222531,173115,-4043,-1.237865525,-3221,-0.986189675
2023-11-10 13:33:54.280,7594,222560,173123,-3328,-1.0189504,-3133,-0.959246275
2023-11-10 13:33:54.280,7595,222585,173130,-2054,-0.62888345,-2994,-0.91668795
2023-11-10 13:33:54.280,7596,222602,173150,-3352,-1.0262986,-2862,-0.87627285
2023-11-10 13:33:54.280,7597,222616,173152,-3738,-1.14448215,-2781,-0.851472675
2023-11-10 13:33:54.312,7598,222633,173148,-2207,-0.675728225,-2717,-0.831877475
2023-11-10 13:33:54.312,7599,222656,173168,-2788,-0.8536159,-2692,-0.8242231
2023-11-10 13:33:54.312,7600,222666,173150,-4094,-1.25348045,-2746,-0.84075655
2023-11-10 13:33:54.312,7601,222695,173195,-2726,-0.83463305,-2818,-0.86280115
2023-11-10 13:33:54.312,7602,222722,173175,-2408,-0.7372694,-2869,-0.878416075
2023-11-10 13:33:54.312,7603,222713,173191,-4128,-1.2638904,-2929,-0.896786575
2023-11-10 13:33:54.349,7604,222698,173173,-3351,-1.025992425,-2966,-0.90811505
2023-11-10 13:33:54.349,7605,222674,173156,-2248,-0.6882814,-2944,-0.9013792
2023-11-10 13:33:54.349,7606,222615,173126,-3594,-1.10039295,-2927,-0.896174225
2023-11-10 13:33:54.349,7607,222542,173111,-3932,-1.2038801,-2949,-0.902910075
2023-11-10 13:33:54.349,7608,222430,173067,-2476,-0.7580893,-2954,-0.90444095
2023-11-10 13:33:54.349,7609,222311,173028,-2991,-0.915769425,-2956,-0.9050533
2023-11-10 13:33:54.349,7610,222167,172973,-4264,-1.3055302,-2993,-0.916381775
2023-11-10 13:33:54.349,7611,222023,172940,-2926,-0.89586805,-3012,-0.9221991
2023-11-10 13:33:54.349,7612,221872,172876,-2517,-0.770642475,-2992,-0.9160756
2023-11-10 13:33:54.378,7613,221723,172830,-4309,-1.319308075,-2994,-0.91668795
2023-11-10 13:33:54.378,7614,221579,172763,-3713,-1.136827775,-3011,-0.921892925
2023-11-10 13:33:54.378,7615,221423,172723,-2525,-0.773091875,-3004,-0.9197497
2023-11-10 13:33:54.378,7616,221284,172672,-3907,-1.196225725,-3012,-0.9221991
2023-11-10 13:33:54.378,7617,221138,172629,-4154,-1.27185095,-3047,-0.932915225
2023-11-10 13:33:54.378,7618,221015,172596,-2626,-0.80401555,-3050,-0.93383375
2023-11-10 13:33:54.378,7619,220908,172557,-3321,-1.016807175,-3041,-0.931078175
2023-11-10 13:33:54.408,7620,220820,172531,-4468,-1.3679899,-3071,-0.940263425
2023-11-10 13:33:54.408,7621,220693,172495,-3085,-0.944549875,-3090,-0.94608075
2023-11-10 13:33:54.408,7622,220627,172463,-2676,-0.8193243,-3083,-0.943937525
2023-11-10 13:33:54.408,7623,220576,172458,-4177,-1.278892975,-3107,-0.951285725
2023-11-10 13:33:54.408,7624,220521,172439,-3434,-1.05140495,-3144,-0.9626142
2023-11-10 13:33:54.436,7625,220471,172438,-2228,-0.6821579,-3148,-0.9638389
2023-11-10 13:33:54.436,7626,220437,172422,-3500,-1.0716125,-3158,-0.96690065
2023-11-10 13:33:54.436,7627,220428,172409,-3844,-1.1769367,-3196,-0.9785353
2023-11-10 13:33:54.436,7628,220418,172412,-2120,-0.649091,-3209,-0.982515575
2023-11-10 13:33:54.436,7629,220399,172413,-2616,-0.8009538,-3213,-0.983740275
2023-11-10 13:33:54.436,7630,220414,172408,-3847,-1.177855225,-3254,-0.99629345
2023-11-10 13:33:54.436,7631,220412,172413,-2367,-0.724716225,-3286,-1.00609105
2023-11-10 13:33:54.468,7632,220425,172412,-2016,-0.6172488,-3290,-1.00731575
2023-11-10 13:33:54.468,7633,220434,172420,-3680,-1.126724,-3320,-1.016501
2023-11-10 13:33:54.468,7634,220430,172416,-3041,-0.931078175,-3359,-1.028441825
2023-11-10 13:33:54.468,7635,220444,172442,-1856,-0.5682608,-3365,-1.030278875
2023-11-10 13:33:54.468,7636,220484,172435,-3139,-0.961083325,-3383,-1.035790025
2023-11-10 13:33:54.468,7637,220458,172443,-3470,-1.06242725,-3430,-1.05018025
2023-11-10 13:33:54.501,7638,220493,172445,-1990,-0.60928825,-3447,-1.055385225
2023-11-10 13:33:54.501,7639,220505,172459,-2567,-0.785951225,-3446,-1.05507905
2023-11-10 13:33:54.501,7640,220505,172469,-3756,-1.1499933,-3472,-1.0630396
2023-11-10 13:33:54.501,7641,220505,172455,-2398,-0.73420765,-3475,-1.063958125
2023-11-10 13:33:54.501,7642,220510,172465,-2055,-0.629189625,-3439,-1.052935825
2023-11-10 13:33:54.534,7643,220511,172460,-3670,-1.12366225,-3421,-1.047424675
2023-11-10 13:33:54.534,7644,220520,172458,-2976,-0.9111768,-3406,-1.04283205
2023-11-10 13:33:54.534,7645,220498,172452,-1764,-0.5400927,-3351,-1.025992425
2023-11-10 13:33:54.534,7646,220488,172456,-3215,-0.984352625,-3296,-1.0091528
2023-11-10 13:33:54.534,7647,220477,172444,-3479,-1.065182825,-3259,-0.997824325
2023-11-10 13:33:54.534,7648,220466,172441,-1996,-0.6111253,-3190,-0.97669825
2023-11-10 13:33:54.534,7649,220457,172434,-2576,-0.7887068,-3110,-0.95220425
2023-11-10 13:33:54.566,7650,220452,172429,-3880,-1.187959,-3066,-0.93873255
2023-11-10 13:33:54.566,7651,220437,172429,-2508,-0.7678869,-3018,-0.92403615
2023-11-10 13:33:54.566,7652,220428,172438,-1914,-0.58601895,-2949,-0.902910075
2023-11-10 13:33:54.566,7653,220410,172430,-3729,-1.141726575,-2912,-0.8915816
2023-11-10 13:33:54.566,7654,220414,172425,-3223,-0.986802025,-2890,-0.88484575
2023-11-10 13:33:54.566,7655,220408,172431,-1989,-0.608982075,-2843,-0.870455525
2023-11-10 13:33:54.598,7656,220426,172430,-3232,-0.9895576,-2814,-0.86157645
2023-11-10 13:33:54.598,7657,220408,172434,-3678,-1.12611165,-2819,-0.863107325
2023-11-10 13:33:54.598,7658,220429,172442,-1991,-0.609594425,-2803,-0.858208525
2023-11-10 13:33:54.598,7659,220432,172440,-2604,-0.7972797,-2782,-0.85177885
2023-11-10 13:33:54.598,7660,220442,172437,-3936,-1.2051048,-2799,-0.856983825
2023-11-10 13:33:54.598,7661,220444,172439,-2524,-0.7727857,-2807,-0.859433225
