Time, Sample Count, IR Count, Red Count, Raw ECG, Raw ECG (mV), Filtered ECG, Filtered ECG (mV)
2023-11-07 12:18:15.901,51,56521,0,5509,1.686718075,31815,9.740957625
2023-11-07 12:18:15.902,52,90046,57290,-5697,-1.744278975,32020,9.8037235
2023-11-07 12:18:15.902,53,139194,106440,-2827,-0.865556725,23277,7.126835475
2023-11-07 12:18:15.902,54,188350,155595,-7762,-2.37653035,13421,4.109174675
2023-11-07 12:18:15.902,55,237501,204747,-3987,-1.220719725,9825,3.008169375
2023-11-07 12:18:15.904,56,286652,253900,5563,1.703251525,13961,4.274509175
2023-11-07 12:18:15.904,57,335808,303056,-969,-0.296683575,21395,6.550614125
2023-11-07 12:18:15.904,58,384956,352202,-11911,-3.646850425,26037,7.971878475
2023-11-07 12:18:15.904,59,406818,366575,-17127,-5.243859225,25020,7.6604985
2023-11-07 12:18:15.904,60,407137,366684,-15760,-4.825318,20202,6.18534735
2023-11-07 12:18:15.904,61,407419,366801,-19910,-6.09594425,15534,4.75612245
2023-11-07 12:18:15.904,62,407697,366890,-19739,-6.043588325,13977,4.279407975
2023-11-07 12:18:15.904,63,407937,366960,-19374,-5.93183445,15789,4.834197075
2023-11-07 12:18:15.904,64,408154,366986,-18229,-5.581264075,18821,5.762519675
2023-11-07 12:18:15.904,65,408354,367014,-23856,-7.3041108,20588,6.3035309
2023-11-07 12:18:15.904,66,408492,366976,-32787,-10.038559725,20326,6.22331305
2023-11-07 12:18:15.904,67,408597,366949,-34827,-10.663156725,17801,5.450221175
2023-11-07 12:18:15.981,68,408653,366859,-47023,-14.397267025,11686,3.57796105
2023-11-07 12:18:16.013,69,408682,366797,-57358,-17.56158565,4059,1.242764325
2023-11-07 12:18:16.013,70,408672,366678,-59081,-18.089125175,-1265,-0.387311375
2023-11-07 12:18:16.013,71,408604,366568,-66122,-20.24490335,-4446,-1.36125405
2023-11-07 12:18:16.043,72,408559,366449,-72687,-22.254942225,-4777,-1.462597975
2023-11-07 12:18:16.043,73,408510,366353,-81600,-24.98388,-2254,-0.69011845
2023-11-07 12:18:16.076,74,408476,366285,-84903,-25.995176025,-1503,-0.460181025
2023-11-07 12:18:16.076,75,408473,366240,-77046,-23.58955905,-4805,-1.471170875
2023-11-07 12:18:16.104,76,408516,366243,-83926,-25.69604305,-9370,-2.86885975
2023-11-07 12:18:16.104,77,408583,366268,-79649,-24.386532575,-13063,-3.999564025
2023-11-07 12:18:16.104,78,408698,366333,-80733,-24.718426275,-16445,-5.035047875
2023-11-07 12:18:16.104,79,408845,366438,-87653,-26.837157275,-19220,-5.8846835
2023-11-07 12:18:16.104,80,408987,366534,-88533,-27.106591275,-20357,-6.232804475
2023-11-07 12:18:16.137,81,409112,366639,-88091,-26.971261925,-20331,-6.224843925
2023-11-07 12:18:16.137,82,409260,366752,-91784,-28.1019662,-21679,-6.637567825
2023-11-07 12:18:16.137,83,409397,366856,-102436,-31.3633423,-25381,-7.771027675
2023-11-07 12:18:16.137,84,409551,366987,-108991,-33.370319425,-30436,-9.3187423
2023-11-07 12:18:16.137,85,409673,367097,-113842,-34.85557435,-37701,-11.543103675
2023-11-07 12:18:16.137,86,409793,367204,-113950,-34.88864125,-46172,-14.1367121
2023-11-07 12:18:16.167,87,409870,367264,-111403,-34.108813525,-53439,-16.361685825
2023-11-07 12:18:16.167,88,409930,367282,-113979,-34.897520325,-60196,-18.4305103
2023-11-07 12:18:16.167,89,409974,367279,-114241,-34.977738175,-67656,-20.7145758
2023-11-07 12:18:16.167,90,409971,367247,-113086,-34.62410605,-75643,-23.159995525
2023-11-07 12:18:16.167,91,409963,367163,-112001,-34.291906175,-81041,-24.812728175
2023-11-07 12:18:16.167,92,409928,367116,-110234,-33.75089495,-82236,-25.1786073
2023-11-07 12:18:16.167,93,409900,367034,-103301,-31.628183675,-82057,-25.123801975
2023-11-07 12:18:16.167,94,409928,366982,-95377,-29.202052975,-81397,-24.921726475
2023-11-07 12:18:16.199,95,409897,366921,-90652,-27.7553761,-81475,-24.945608125
2023-11-07 12:18:16.199,96,409883,366847,-89549,-27.417665075,-83810,-25.66052675
2023-11-07 12:18:16.199,97,409848,366762,-90753,-27.786299775,-86465,-26.473421375
2023-11-07 12:18:16.202,98,409822,366671,-89807,-27.496658225,-87980,-26.9372765
2023-11-07 12:18:16.202,99,409817,366597,-89259,-27.328874325,-90011,-27.559117925
2023-11-07 12:18:16.202,100,409792,366471,-86626,-26.52271555,-94479,-28.927107825
2023-11-07 12:18:16.202,101,409797,366423,-83293,-25.502234275,-100689,-30.828454575
2023-11-07 12:18:16.232,102,409824,366379,-83802,-25.65807735,-106983,-32.755520025
2023-11-07 12:18:16.232,103,388300,344064,-77724,-23.7971457,-111745,-34.213525375
2023-11-07 12:18:16.232,104,360448,294912,-74530,-22.81922275,-114466,-35.04662755
2023-11-07 12:18:16.232,105,311296,272068,-71365,-21.850178875,-115952,-35.5016036
2023-11-07 12:18:16.232,106,303072,272084,-70320,-21.530226,-115985,-35.511707375
2023-11-07 12:18:16.232,107,303141,272105,-68404,-20.9435947,-114336,-35.0068248
2023-11-07 12:18:16.232,108,303218,272102,-67788,-20.7549909,-112211,-34.356202925
2023-11-07 12:18:16.232,109,303288,272114,-68193,-20.878991775,-110389,-33.798352075
2023-11-07 12:18:16.263,110,303353,272122,-64917,-19.875962475,-107971,-33.058020925
2023-11-07 12:18:16.263,111,303368,272111,-61500,-18.8297625,-104106,-31.87465455
2023-11-07 12:18:16.263,112,303421,272124,-59135,-18.105658625,-99183,-30.367355025
2023-11-07 12:18:16.263,113,303429,272127,-60080,-18.394994,-94266,-28.86189255
2023-11-07 12:18:16.263,114,303471,272123,-59851,-18.324879925,-90250,-27.63229375
2023-11-07 12:18:16.263,115,303531,272139,-59248,-18.1402564,-87644,-26.8344017
2023-11-07 12:18:16.263,116,303554,272124,-57858,-17.71467315,-86878,-26.59987165
2023-11-07 12:18:16.263,117,303564,272102,-56855,-17.407579625,-87234,-26.70886995
2023-11-07 12:18:16.291,118,303590,272079,-55390,-16.95903325,-87620,-26.8270535
2023-11-07 12:18:16.291,119,303607,272045,-53730,-16.45078275,-86858,-26.59374815
2023-11-07 12:18:16.291,120,303626,272034,-53317,-16.324332475,-83486,-25.56132605
2023-11-07 12:18:16.291,121,303628,271967,-52442,-16.05642935,-78326,-23.98146305
2023-11-07 12:18:16.291,122,303652,271970,-51277,-15.699735475,-73694,-22.56326045
2023-11-07 12:18:16.291,123,303647,271913,-50548,-15.4765339,-70956,-21.7249533
2023-11-07 12:18:16.326,124,303666,271882,-50179,-15.363555325,-69843,-21.384180525
2023-11-07 12:18:16.326,125,303680,271856,-49741,-15.229450675,-69460,-21.2669155
2023-11-07 12:18:16.326,126,303709,271853,-49837,-15.258843475,-68815,-21.069432625
2023-11-07 12:18:16.326,127,303745,271835,-50232,-15.3797826,-66899,-20.482801325
2023-11-07 12:18:16.355,128,303792,271799,-50106,-15.34120455,-64016,-19.6000988
2023-11-07 12:18:16.355,129,303819,271799,-50872,-15.5757346,-61630,-18.86956525
2023-11-07 12:18:16.355,130,303841,271781,-50824,-15.5610382,-60647,-18.568595225
2023-11-07 12:18:16.355,131,303870,271791,-50451,-15.446834925,-60391,-18.490214425
2023-11-07 12:18:16.355,132,303891,271813,-49915,-15.282725125,-59797,-18.308346475
2023-11-07 12:18:16.355,133,303897,271792,-49613,-15.190260275,-58658,-17.95961315
2023-11-07 12:18:16.355,134,303914,271805,-49704,-15.2181222,-57447,-17.588835225
2023-11-07 12:18:16.388,135,303927,271825,-50292,-15.3981531,-56469,-17.289396075
2023-11-07 12:18:16.388,136,303944,271850,-50218,-15.37549615,-55664,-17.0429252
2023-11-07 12:18:16.388,137,303960,271862,-50340,-15.4128495,-54876,-16.8016593
2023-11-07 12:18:16.388,138,304001,271875,-49919,-15.283949825,-53760,-16.459968
2023-11-07 12:18:16.388,139,303990,271889,-48833,-14.951443775,-52277,-16.005910475
2023-11-07 12:18:16.388,140,304022,271912,-47835,-14.645881125,-50959,-15.602371825
2023-11-07 12:18:16.416,141,304016,271911,-47152,-14.4367636,-50266,-15.39019255
2023-11-07 12:18:16.416,142,303984,271897,-46741,-14.310925675,-50156,-15.3565133
2023-11-07 12:18:16.416,143,303993,271900,-46508,-14.2395869,-50331,-15.410093925
2023-11-07 12:18:16.416,144,303964,271913,-47523,-14.550354525,-50403,-15.432138525
2023-11-07 12:18:16.416,145,303971,271922,-46821,-14.335419675,-50236,-15.3810073
2023-11-07 12:18:16.416,146,303945,271932,-45704,-13.9934222,-50140,-15.3516145
2023-11-07 12:18:16.416,147,303933,271891,-45210,-13.84217175,-50286,-15.39631605
2023-11-07 12:18:16.416,148,303930,271863,-44886,-13.74297105,-50560,-15.480208
2023-11-07 12:18:16.449,149,303920,271813,-43615,-13.353822625,-50747,-15.537462725
2023-11-07 12:18:16.449,150,303902,271811,-41731,-12.776988925,-50650,-15.50776375
2023-11-07 12:18:16.449,151,303922,271808,-40183,-12.303030025,-50333,-15.410706275
2023-11-07 12:18:16.449,152,303953,271803,-38797,-11.878671475,-49994,-15.30691295
2023-11-07 12:18:16.449,153,303963,271831,-37433,-11.461048775,-49801,-15.247821175
2023-11-07 12:18:16.449,154,262144,245760,-36985,-11.323882375,-49896,-15.2769078
2023-11-07 12:18:16.449,155,238440,227192,-35847,-10.975455225,-50109,-15.342123075
2023-11-07 12:18:16.479,156,238473,227182,-34523,-10.570079525,-50022,-15.31548585
2023-11-07 12:18:16.479,157,238471,227163,-33460,-10.2446155,-49432,-15.1348426
2023-11-07 12:18:16.479,158,238471,227170,-33318,-10.20113865,-48469,-14.839996075
2023-11-07 12:18:16.479,159,238482,227148,-33011,-10.107142925,-47421,-14.519124675
2023-11-07 12:18:16.479,160,238513,227132,-32262,-9.87781785,-46730,-14.30755775
2023-11-07 12:18:16.511,161,238524,227111,-31704,-9.7069722,-46659,-14.285819325
2023-11-07 12:18:16.511,162,238546,227105,-32138,-9.83985215,-46759,-14.316436825
2023-11-07 12:18:16.511,163,238564,227125,-32425,-9.927724375,-46598,-14.26714265
2023-11-07 12:18:16.511,164,238586,227132,-32398,-9.91945765,-46241,-14.157838175
2023-11-07 12:18:16.511,165,238598,227119,-31858,-9.75412315,-45703,-13.993116025
2023-11-07 12:18:16.511,166,238605,227120,-30938,-9.47244215,-44760,-13.704393
2023-11-07 12:18:16.511,167,238602,227122,-29425,-9.009199375,-43373,-13.279728275
2023-11-07 12:18:16.544,168,238577,227083,-29032,-8.8888726,-41837,-12.809443475
2023-11-07 12:18:16.544,169,238540,227028,-28599,-8.756298825,-40357,-12.356304475
2023-11-07 12:18:16.544,170,238475,226993,-27904,-8.5435072,-39011,-11.944192925
2023-11-07 12:18:16.544,171,238428,226943,-27336,-8.3695998,-37851,-11.589029925
2023-11-07 12:18:16.544,172,238387,226885,-27534,-8.43022245,-36724,-11.2439707
2023-11-07 12:18:16.544,173,238343,226824,-28580,-8.7504815,-35540,-10.8814595
2023-11-07 12:18:16.573,174,238294,226761,-28565,-8.745888875,-34508,-10.5654869
2023-11-07 12:18:16.573,175,238260,226715,-27331,-8.368068925,-33839,-10.360655825
2023-11-07 12:18:16.573,176,238237,226649,-27322,-8.36531335,-33380,-10.2201215
2023-11-07 12:18:16.573,177,238212,226617,-27258,-8.34571815,-32834,-10.05294995
2023-11-07 12:18:16.608,178,238212,226554,-27563,-8.439101525,-32284,-9.8845537
2023-11-07 12:18:16.608,179,238195,226497,-28349,-8.679755075,-32041,-9.810153175
2023-11-07 12:18:16.608,180,238193,226436,-28256,-8.6512808,-32123,-9.835259525
2023-11-07 12:18:16.608,181,238192,226389,-28123,-8.610559525,-32259,-9.876899325
2023-11-07 12:18:16.608,182,238207,226332,-29173,-8.932043275,-32192,-9.8563856
2023-11-07 12:18:16.608,183,238215,226272,-30619,-9.374772325,-31735,-9.716463625
2023-11-07 12:18:16.608,184,238203,226215,-31539,-9.656453325,-30925,-9.468461875
2023-11-07 12:18:16.639,185,238203,226180,-32935,-10.083873625,-30084,-9.2109687
2023-11-07 12:18:16.639,186,238216,226152,-34490,-10.55997575,-29331,-8.980418925
2023-11-07 12:18:16.639,187,238202,226131,-34254,-10.48771845,-28561,-8.744664175
2023-11-07 12:18:16.639,188,238201,226121,-34200,-10.471185,-27853,-8.527892275
2023-11-07 12:18:16.639,189,238179,226101,-34894,-10.68367045,-27532,-8.4296101
2023-11-07 12:18:16.639,190,238172,226073,-34869,-10.676016075,-27753,-8.497274775
2023-11-07 12:18:16.668,191,238135,226033,-34241,-10.483738175,-28053,-8.589127275
2023-11-07 12:18:16.669,192,238103,225988,-33696,-10.3168728,-28027,-8.581166725
2023-11-07 12:18:16.669,193,238052,225932,-33082,-10.12888135,-27866,-8.53187255
2023-11-07 12:18:16.669,194,237990,225890,-33329,-10.204506575,-27736,-8.4920698
2023-11-07 12:18:16.669,195,237938,225820,-33218,-10.17052115,-27693,-8.478904275
2023-11-07 12:18:16.700,196,237858,225757,-32798,-10.04192765,-27780,-8.5055415
2023-11-07 12:18:16.700,197,237793,225712,-32872,-10.0645846,-27853,-8.527892275
2023-11-07 12:18:16.700,198,237752,225638,-33293,-10.193484275,-27999,-8.572593825
2023-11-07 12:18:16.700,199,237716,225607,-33812,-10.3523891,-28591,-8.753849425
2023-11-07 12:18:16.700,200,237708,225573,-33962,-10.39831535,-29611,-9.066147925
2023-11-07 12:18:16.700,201,237714,225577,-33012,-10.1074491,-30697,-9.398653975
2023-11-07 12:18:16.700,202,237716,225561,-31955,-9.783822125,-31796,-9.7351403
2023-11-07 12:18:16.732,203,237730,225559,-30483,-9.333132525,-32891,-10.070401925
2023-11-07 12:18:16.732,204,237773,225571,-29303,-8.971846025,-33708,-10.3205469
2023-11-07 12:18:16.732,205,237819,225583,-29033,-8.889178775,-34314,-10.50608895
2023-11-07 12:18:16.732,206,237796,225571,-28899,-8.848151325,-34905,-10.687038375
2023-11-07 12:18:16.732,207,237779,225589,-26736,-8.1858948,-35219,-10.783177325
2023-11-07 12:18:16.732,208,237713,225565,-22253,-6.813312275,-34994,-10.71428795
2023-11-07 12:18:16.761,209,237637,225554,-19264,-5.8981552,-34360,-10.520173
2023-11-07 12:18:16.761,210,237495,225520,-17501,-5.358368675,-33697,-10.317178975
2023-11-07 12:18:16.761,211,237284,225455,-16671,-5.104243425,-33359,-10.213691825
2023-11-07 12:18:16.761,212,237070,225373,-15771,-4.828685925,-33273,-10.187360775
2023-11-07 12:18:16.761,213,236845,225275,-14214,-4.35197145,-33187,-10.161029725
2023-11-07 12:18:16.761,214,236572,225161,-12531,-3.836678925,-33107,-10.136535725
2023-11-07 12:18:16.761,215,236289,225017,-11517,-3.526217475,-33148,-10.1490889
2023-11-07 12:18:16.792,216,236048,224887,-9950,-3.04644125,-33347,-10.210017725
2023-11-07 12:18:16.792,217,235844,224765,-9033,-2.765678775,-33536,-10.2678848
2023-11-07 12:18:16.792,218,235674,224682,-8766,-2.68393005,-33452,-10.2421661
2023-11-07 12:18:16.792,219,235525,224586,-8501,-2.602793675,-32996,-10.1025503
2023-11-07 12:18:16.792,220,235399,224492,-8204,-2.5118597,-32152,-9.8441386
2023-11-07 12:18:16.792,221,235260,224392,-8511,-2.605855425,-31052,-9.5073461
2023-11-07 12:18:16.792,222,235174,224328,-8952,-2.7408786,-30019,-9.191067325
2023-11-07 12:18:16.822,223,235101,224282,-8964,-2.7445527,-29084,-8.9047937
2023-11-07 12:18:16.822,224,235035,224230,-9513,-2.912642775,-27670,-8.47186225
2023-11-07 12:18:16.822,225,235019,224210,-9321,-2.853857175,-25409,-7.779600575
2023-11-07 12:18:16.822,226,235034,224190,-9065,-2.775476375,-22833,-6.990893775
2023-11-07 12:18:16.822,227,235075,224208,-11013,-3.371905275,-20518,-6.28209865
2023-11-07 12:18:16.822,228,235117,224223,-14338,-4.38993715,-18510,-5.66729925
2023-11-07 12:18:16.856,229,235192,224263,-15498,-4.74510015,-16609,-5.085260575
2023-11-07 12:18:16.856,230,235273,224293,-15358,-4.70223565,-14739,-4.512713325
2023-11-07 12:18:16.856,231,235346,224330,-15101,-4.623548675,-13206,-4.04334705
2023-11-07 12:18:16.856,232,235454,224372,-11558,-3.53877065,-12233,-3.745438775
2023-11-07 12:18:16.856,233,235539,224385,-10019,-3.067567325,-11517,-3.526217475
2023-11-07 12:18:16.856,234,235641,224422,-11710,-3.58530925,-10711,-3.279440425
2023-11-07 12:18:16.856,235,235739,224469,-13869,-4.246341075,-9742,-2.98275685
2023-11-07 12:18:16.888,236,235853,224495,-15194,-4.65202295,-8704,-2.6649472
2023-11-07 12:18:16.888,237,235916,224530,-15805,-4.839095875,-7921,-2.425212175
2023-11-07 12:18:16.888,238,235990,224532,-15860,-4.8559355,-7792,-2.3857156
2023-11-07 12:18:16.888,239,236067,224550,-15401,-4.715401175,-8274,-2.53329195
2023-11-07 12:18:16.888,240,236107,224523,-15223,-4.660902025,-8950,-2.74026625
2023-11-07 12:18:16.888,241,236139,224488,-14894,-4.56017045,-9462,-2.89702785
2023-11-07 12:18:16.919,242,236165,224466,-15082,-4.61773135,-9529,-2.917541575
2023-11-07 12:18:16.919,243,236168,224441,-14806,-4.53322705,-9370,-2.86885975
2023-11-07 12:18:16.919,244,236208,224404,-14979,-4.586195325,-9885,-3.026539875
2023-11-07 12:18:16.919,245,236237,224357,-15227,-4.662126725,-11442,-3.50325435
2023-11-07 12:18:16.919,246,236227,224314,-15540,-4.7579595,-13238,-4.05314465
2023-11-07 12:18:16.952,247,236216,224273,-15627,-4.784596725,-14589,-4.466787075
2023-11-07 12:18:16.952,248,236224,224244,-14883,-4.556802525,-15138,-4.63487715
2023-11-07 12:18:16.952,249,236224,224215,-13902,-4.25644485,-14448,-4.4236164
2023-11-07 12:18:16.952,250,236218,224185,-13557,-4.150814475,-13138,-4.02252715
2023-11-07 12:18:16.952,251,236235,224168,-13026,-3.98823555,-12352,-3.7818736
2023-11-07 12:18:16.954,252,236270,224174,-12305,-3.767483375,-12320,-3.772076
2023-11-07 12:18:16.954,253,236309,224171,-12237,-3.746663475,-12756,-3.9055683
2023-11-07 12:18:16.980,254,236371,224176,-12368,-3.7867724,-13575,-4.156325625
2023-11-07 12:18:16.980,255,236385,224191,-12773,-3.910773275,-14725,-4.508426875
2023-11-07 12:18:16.980,256,236457,224232,-12252,-3.7512561,-15890,-4.86512075
2023-11-07 12:18:16.980,257,236463,224226,-10924,-3.3446557,-16565,-5.071788875
2023-11-07 12:18:16.980,258,236483,224218,-10384,-3.1793212,-16405,-5.022800875
2023-11-07 12:18:16.980,259,236463,224223,-9495,-2.907131625,-15550,-4.76102125
2023-11-07 12:18:17.010,260,236478,224216,-8452,-2.5877911,-14552,-4.4554586
2023-11-07 12:18:17.010,261,236461,224217,-7314,-2.23936395,-14099,-4.316761325
2023-11-07 12:18:17.010,262,236426,224201,-5742,-1.75805685,-14484,-4.4346387
2023-11-07 12:18:17.010,263,236431,224189,-5383,-1.648140025,-15361,-4.703154175
2023-11-07 12:18:17.010,264,236414,224165,-6565,-2.010038875,-16019,-4.904617325
2023-11-07 12:18:17.010,265,236410,224153,-7581,-2.321112675,-15856,-4.8547108
2023-11-07 12:18:17.010,266,236406,224131,-7205,-2.205990875,-14958,-4.57976565
2023-11-07 12:18:17.010,267,236392,224126,-6267,-1.918798725,-13949,-4.270835075
2023-11-07 12:18:17.043,268,236411,224112,-5756,-1.7623433,-13225,-4.049164375
2023-11-07 12:18:17.043,269,236422,224103,-4952,-1.5161786,-12823,-3.926082025
2023-11-07 12:18:17.043,270,236420,224088,-3946,-1.20816655,-12674,-3.88046195
2023-11-07 12:18:17.043,271,236410,224078,-3567,-1.092126225,-12638,-3.86943965
2023-11-07 12:18:17.043,272,236393,224051,-3169,-0.970268575,-12562,-3.84617035
2023-11-07 12:18:17.043,273,236379,224016,-2755,-0.843512125,-12225,-3.742989375
2023-11-07 12:18:17.043,274,236329,223979,-2729,-0.835551575,-11631,-3.561121425
2023-11-07 12:18:17.073,275,236276,223937,-2548,-0.7801339,-11064,-3.3875202
2023-11-07 12:18:17.073,276,236234,223905,-1714,-0.52478395,-10507,-3.216980725
2023-11-07 12:18:17.073,277,236188,223874,-1505,-0.460793375,-9728,-2.9784704
2023-11-07 12:18:17.073,278,236129,223836,-1253,-0.383637275,-8584,-2.6282062
2023-11-07 12:18:17.073,279,236060,223784,-1523,-0.466304525,-7181,-2.198642675
2023-11-07 12:18:17.105,280,236006,223749,-1426,-0.43660555,-6101,-1.867973675
2023-11-07 12:18:17.105,281,235921,223689,-1504,-0.4604872,-5881,-1.800615175
2023-11-07 12:18:17.105,282,235871,223685,-1973,-0.604083275,-6290,-1.92584075
2023-11-07 12:18:17.105,283,235843,223670,-3056,-0.9356708,-6645,-2.034532875
2023-11-07 12:18:17.105,284,235833,223651,-3516,-1.0765113,-6655,-2.037594625
2023-11-07 12:18:17.105,285,235792,223634,-3384,-1.0360962,-6454,-1.97605345
2023-11-07 12:18:17.105,286,235778,223637,-2482,-0.75992635,-6029,-1.845929075
2023-11-07 12:18:17.138,287,235758,223621,-2427,-0.743086725,-5302,-1.62333985
2023-11-07 12:18:17.138,288,235736,223624,-2563,-0.784726525,-4409,-1.349925575
2023-11-07 12:18:17.138,289,235728,223626,-3079,-0.942712825,-3521,-1.078042175
2023-11-07 12:18:17.138,290,235758,223626,-3495,-1.070081625,-2825,-0.864944375
2023-11-07 12:18:17.138,291,235771,223619,-3375,-1.033340625,-2522,-0.77217335
2023-11-07 12:18:17.138,292,235781,223637,-3552,-1.0875336,-2483,-0.760232525
2023-11-07 12:18:17.170,293,235841,223643,-4547,-1.392177725,-2394,-0.73298295
2023-11-07 12:18:17.170,294,235865,223666,-5429,-1.662224075,-2139,-0.654908325
2023-11-07 12:18:17.170,295,235907,223679,-5890,-1.80337075,-1767,-0.541011225
2023-11-07 12:18:17.170,296,235929,223697,-5413,-1.657325275,-1407,-0.430788225
2023-11-07 12:18:17.170,297,235973,223688,-5513,-1.687942775,-1169,-0.357918575
2023-11-07 12:18:17.170,298,236041,223724,-5709,-1.747953075,-1172,-0.3588371
2023-11-07 12:18:17.170,299,236077,223749,-5875,-1.798778125,-1570,-0.48069475
2023-11-07 12:18:17.170,300,236159,223749,-6140,-1.8799145,-2296,-0.7029778
2023-11-07 12:18:17.170,301,236216,223773,-5432,-1.6631426,-2979,-0.912095325
2023-11-07 12:18:17.198,302,236282,223798,-5432,-1.6631426,-3234,-0.99016995
2023-11-07 12:18:17.198,303,236355,223825,-5027,-1.539141725,-3046,-0.93260905
2023-11-07 12:18:17.198,304,236382,223834,-4837,-1.480968475,-2789,-0.853922075
2023-11-07 12:18:17.198,305,236455,223865,-4575,-1.400750625,-2737,-0.838000975
2023-11-07 12:18:17.198,306,236465,223858,-5049,-1.545877575,-2889,-0.884539575
2023-11-07 12:18:17.198,307,236528,223855,-5456,-1.6704908,-3080,-0.943019
2023-11-07 12:18:17.198,308,236519,223853,-5393,-1.651201775,-3157,-0.966594475
2023-11-07 12:18:17.231,309,236532,223884,-5668,-1.7353999,-3309,-1.013133075
2023-11-07 12:18:17.231,310,236563,223880,-5230,-1.60129525,-3809,-1.166220575
2023-11-07 12:18:17.231,311,236579,223887,-4706,-1.44085955,-4592,-1.4059556
2023-11-07 12:18:17.231,312,236599,223877,-4670,-1.42983725,-5268,-1.6129299
2023-11-07 12:18:17.231,313,236593,223886,-4575,-1.400750625,-5568,-1.7047824
2023-11-07 12:18:17.260,314,236657,223912,-4206,-1.28777205,-5652,-1.7305011
2023-11-07 12:18:17.260,315,236675,223920,-3968,-1.2149024,-5731,-1.754688925
2023-11-07 12:18:17.260,316,236689,223916,-4024,-1.2320482,-5856,-1.7929608
2023-11-07 12:18:17.260,317,236695,223901,-4663,-1.427694025,-5922,-1.81316835
2023-11-07 12:18:17.292,318,236730,223918,-5300,-1.6227275,-5796,-1.7745903
2023-11-07 12:18:17.292,319,236766,223931,-4883,-1.495052525,-5583,-1.709375025
2023-11-07 12:18:17.292,320,236792,223931,-4762,-1.45800535,-5373,-1.645078275
2023-11-07 12:18:17.292,321,236822,223943,-4310,-1.31961425,-5151,-1.577107425
2023-11-07 12:18:17.292,322,236831,223958,-4394,-1.34533295,-4956,-1.5174033
2023-11-07 12:18:17.292,323,236839,223954,-4413,-1.351150275,-4907,-1.502400725
2023-11-07 12:18:17.324,324,236865,223972,-4264,-1.3055302,-4993,-1.528731775
2023-11-07 12:18:17.324,325,236849,223929,-4299,-1.316246325,-5123,-1.568534525
2023-11-07 12:18:17.324,326,236878,223938,-4342,-1.32941185,-5300,-1.6227275
2023-11-07 12:18:17.324,327,236886,223957,-3998,-1.22408765,-5389,-1.649977075
2023-11-07 12:18:17.324,328,236908,223955,-3802,-1.16407735,-5306,-1.62456455
2023-11-07 12:18:17.324,329,236892,223937,-3419,-1.046812325,-5134,-1.57190245
2023-11-07 12:18:17.356,330,236891,223908,-2081,-0.637150175,-4870,-1.49107225
2023-11-07 12:18:17.356,331,236852,223915,-1560,-0.477633,-4479,-1.371357825
2023-11-07 12:18:17.356,332,236850,223899,-1484,-0.4543637,-4101,-1.255623675
2023-11-07 12:18:17.356,333,236833,223885,-961,-0.294234175,-3966,-1.21429005
2023-11-07 12:18:17.356,334,236824,223872,-271,-0.082973425,-4222,-1.29267085
2023-11-07 12:18:17.356,335,236791,223839,-427,-0.130736725,-4658,-1.42616315
2023-11-07 12:18:17.356,336,236786,223830,-507,-0.155230725,-4906,-1.50209455
2023-11-07 12:18:17.387,337,236773,223810,-525,-0.160741875,-4892,-1.4978081
2023-11-07 12:18:17.387,338,236740,223802,-515,-0.157680125,-4737,-1.450350975
2023-11-07 12:18:17.387,339,236731,223780,-1201,-0.367716175,-4601,-1.408711175
2023-11-07 12:18:17.387,340,236724,223766,-242,-0.07409435,-4509,-1.380543075
2023-11-07 12:18:17.387,341,236730,223762,2291,0.701446925,-4388,-1.3434959
2023-11-07 12:18:17.387,342,236716,223760,2621,0.802484675,-4280,-1.310429
2023-11-07 12:18:17.387,343,236717,223757,1380,0.4225215,-4215,-1.290527625
2023-11-07 12:18:17.418,344,236703,223741,-410,-0.12553175,-4139,-1.267258325
2023-11-07 12:18:17.418,345,236705,223747,-1315,-0.402620125,-4041,-1.237253175
2023-11-07 12:18:17.418,346,236683,223747,403,0.123388525,-3783,-1.158260025
2023-11-07 12:18:17.418,347,236667,223740,2194,0.67174795,-3183,-0.974555025
2023-11-07 12:18:17.418,348,236652,223721,1051,0.321789925,-2454,-0.75135345
2023-11-07 12:18:17.450,349,236619,223709,-1191,-0.364654425,-1847,-0.565505225
2023-11-07 12:18:17.450,350,236617,223673,-2285,-0.699609875,-1278,-0.39129165
2023-11-07 12:18:17.450,351,236566,223660,-1298,-0.39741515,-745,-0.228100375
2023-11-07 12:18:17.450,352,236533,223663,-1524,-0.4666107,-442,-0.13532935
2023-11-07 12:18:17.450,353,236478,223641,-2386,-0.73053355,-386,-0.11818355
2023-11-07 12:18:17.450,354,236455,223616,-2898,-0.88729515,-414,-0.12675645
2023-11-07 12:18:17.450,355,236407,223586,-2539,-0.777378325,-507,-0.155230725
2023-11-07 12:18:17.480,356,236322,223557,-2166,-0.66317505,-680,-0.208199
2023-11-07 12:18:17.480,357,236200,223508,-1616,-0.4947788,-462,-0.14145285
2023-11-07 12:18:17.480,358,236136,223446,-1276,-0.3906793,416,0.1273688
2023-11-07 12:18:17.480,359,235985,223394,-1270,-0.38884225,1278,0.39129165
2023-11-07 12:18:17.480,360,235869,223327,-1699,-0.520191325,1463,0.447934025
2023-11-07 12:18:17.480,361,235697,223260,-1139,-0.348733325,996,0.3049503
2023-11-07 12:18:17.510,362,235544,223173,-452,-0.1383911,453,0.138697275
2023-11-07 12:18:17.510,363,235421,223128,-17,-0.005204975,489,0.149719575
2023-11-07 12:18:17.510,364,235336,223092,436,0.1334923,832,0.2547376
2023-11-07 12:18:17.510,365,235236,223042,551,0.168702425,585,0.179112375
2023-11-07 12:18:17.510,366,235132,223003,-37,-0.011328475,-343,-0.105018025
2023-11-07 12:18:17.510,367,235067,222971,-1027,-0.314441725,-1053,-0.322402275
2023-11-07 12:18:17.510,368,235011,222942,-1353,-0.414254775,-1029,-0.315054075
2023-11-07 12:18:17.543,369,234970,222916,-1375,-0.420990625,-955,-0.292397125
2023-11-07 12:18:17.543,370,234949,222913,-919,-0.281374825,-1534,-0.46967245
2023-11-07 12:18:17.543,371,234962,222914,-545,-0.166865375,-2485,-0.760844875
2023-11-07 12:18:17.543,372,234962,222903,-1849,-0.566117575,-3080,-0.943019
2023-11-07 12:18:17.543,373,234954,222923,-3466,-1.06120255,-2952,-0.9038286
2023-11-07 12:18:17.543,374,234975,222912,-4550,-1.39309625,-2272,-0.6956296
2023-11-07 12:18:17.543,375,235013,222930,-5226,-1.60007055,-1517,-0.464467475
2023-11-07 12:18:17.575,376,235030,222932,-4410,-1.35023175,-1166,-0.35700005
2023-11-07 12:18:17.575,377,235046,222941,-2160,-0.661338,-1268,-0.3882299
2023-11-07 12:18:17.575,378,235057,222944,435,0.133186125,-1373,-0.420378275
2023-11-07 12:18:17.575,379,235082,222935,2592,0.7936056,-1161,-0.355469175
2023-11-07 12:18:17.575,380,235117,222942,3853,1.179692275,-681,-0.208505175
2023-11-07 12:18:17.575,381,235121,222944,4392,1.3447206,-102,-0.03122985
2023-11-07 12:18:17.605,382,235156,222949,4934,1.51066745,325,0.099506875
2023-11-07 12:18:17.605,383,235182,222953,5166,1.58170005,339,0.103793325
2023-11-07 12:18:17.605,384,235213,222948,5478,1.67722665,-62,-0.01898285
2023-11-07 12:18:17.605,385,235237,222947,4642,1.42126435,-585,-0.179112375
2023-11-07 12:18:17.605,386,235248,222954,3431,1.050486425,-984,-0.3012762
2023-11-07 12:18:17.605,387,235302,222963,2448,0.7495164,-1138,-0.34842715
2023-11-07 12:18:17.605,388,235305,222975,1412,0.4323191,-1198,-0.36679765
2023-11-07 12:18:17.605,389,235341,222981,192,0.0587856,-1556,-0.4764083
2023-11-07 12:18:17.635,390,235373,222980,-549,-0.168090075,-2263,-0.692874025
2023-11-07 12:18:17.635,391,235399,222977,-1955,-0.598572125,-3080,-0.943019
2023-11-07 12:18:17.635,392,235407,222971,-4708,-1.4414719,-3829,-1.172344075
2023-11-07 12:18:17.635,393,235416,222986,-7593,-2.324786775,-4203,-1.286853525
2023-11-07 12:18:17.635,394,235454,222996,-10099,-3.092061325,-3842,-1.17632435
2023-11-07 12:18:17.635,395,235488,222981,-11139,-3.410483325,-2622,-0.80279085
2023-11-07 12:18:17.667,396,235521,223007,-9711,-2.973265425,-699,-0.214016325
2023-11-07 12:18:17.667,397,235536,223011,-8773,-2.686073275,1531,0.468753925
2023-11-07 12:18:17.667,398,235573,223018,-8497,-2.601568975,3604,1.1034547
2023-11-07 12:18:17.667,399,235598,223026,-8499,-2.602181325,5114,1.56577895
2023-11-07 12:18:17.667,400,235595,223029,-8337,-2.552580975,5820,1.7819385
2023-11-07 12:18:17.699,401,235626,223017,-7543,-2.309478025,5727,1.753464225
2023-11-07 12:18:17.699,402,235662,223029,-7145,-2.187620375,5003,1.531793525
2023-11-07 12:18:17.699,403,235667,223036,-6432,-1.9693176,4048,1.2393964
2023-11-07 12:18:17.699,404,235688,223036,-4980,-1.5247515,3275,1.002723125
2023-11-07 12:18:17.699,405,235669,223009,-4425,-1.354824375,2636,0.8070773
2023-11-07 12:18:17.699,406,235664,222988,-4151,-1.270932425,1827,0.559381725
2023-11-07 12:18:17.731,407,235639,222982,-2932,-0.8977051,698,0.21371015
2023-11-07 12:18:17.731,408,235605,222940,358,0.10961065,-879,-0.269127825
2023-11-07 12:18:17.731,409,235612,222924,4443,1.360335525,-2954,-0.90444095
2023-11-07 12:18:17.731,410,235572,222918,7194,2.20262295,-5252,-1.6080311
2023-11-07 12:18:17.731,411,235562,222897,7111,2.177210425,-7422,-2.27243085
2023-11-07 12:18:17.731,412,235521,222886,3901,1.194388675,-9050,-2.77088375
2023-11-07 12:18:17.762,413,235528,222884,1439,0.440585825,-9848,-3.0152114
2023-11-07 12:18:17.762,414,235506,222878,1331,0.407518925,-10087,-3.088387225
2023-11-07 12:18:17.762,415,235493,222880,2324,0.7115507,-10054,-3.07828345
2023-11-07 12:18:17.762,416,235494,222882,4549,1.392790075,-9674,-2.96193695
2023-11-07 12:18:17.762,417,235486,222874,4893,1.498114275,-8831,-2.703831425
2023-11-07 12:18:17.791,418,235466,222868,3815,1.168057625,-7736,-2.3685698
2023-11-07 12:18:17.791,419,235453,222862,3272,1.0018046,-6922,-2.11934335
2023-11-07 12:18:17.791,420,235428,222831,5087,1.557512225,-6533,-2.000241275
2023-11-07 12:18:17.791,421,235395,222836,7882,2.41327135,-6237,-1.909613475
2023-11-07 12:18:17.791,422,235359,222804,7727,2.365814225,-5811,-1.779182925
2023-11-07 12:18:17.791,423,235337,222780,7930,2.42796775,-5093,-1.559349275
2023-11-07 12:18:17.824,424,235279,222773,7774,2.38020445,-3766,-1.15305505
2023-11-07 12:18:17.824,425,235240,222764,6457,1.976971975,-1586,-0.48559355
2023-11-07 12:18:17.824,426,235212,222738,5271,1.613848425,1177,0.360367975
2023-11-07 12:18:17.824,427,235185,222742,4536,1.3888098,3759,1.150911825
2023-11-07 12:18:17.824,428,235178,222752,4888,1.4965834,5292,1.6202781
2023-11-07 12:18:17.824,429,235206,222751,5477,1.676920475,5399,1.653038825
2023-11-07 12:18:17.855,430,235187,222771,6122,1.87440335,4687,1.435042225
2023-11-07 12:18:17.855,431,235167,222771,6274,1.92094195,3913,1.198062775
2023-11-07 12:18:17.855,432,235154,222775,6790,2.07892825,3325,1.018031875
2023-11-07 12:18:17.855,433,235131,222765,6623,2.027797025,2958,0.90566565
2023-11-07 12:18:17.885,434,235105,222759,5311,1.626095425,2695,0.825141625
2023-11-07 12:18:17.885,435,235102,222750,4305,1.318083375,2644,0.8095267
2023-11-07 12:18:17.885,436,235075,222755,3146,0.96322655,3302,1.01098985
2023-11-07 12:18:17.885,437,235096,222746,3497,1.070693975,4949,1.515260075
2023-11-07 12:18:17.885,438,235077,222764,5892,1.8039831,6771,2.073110925
2023-11-07 12:18:17.885,439,235091,222753,6158,1.88542565,7511,2.299680425
2023-11-07 12:18:17.885,440,235107,222764,5576,1.7072318,7275,2.227423125
2023-11-07 12:18:17.917,441,235129,222792,4544,1.3912592,6926,2.12056805
2023-11-07 12:18:17.917,442,235137,222807,1372,0.4200721,6811,2.085357925
2023-11-07 12:18:17.917,443,235181,222814,-744,-0.2277942,6789,2.078622075
2023-11-07 12:18:17.917,444,235206,222848,-606,-0.18554205,6534,2.00054745
2023-11-07 12:18:17.917,445,235237,222879,-94,-0.02878045,5915,1.811025125
2023-11-07 12:18:17.917,446,235296,222900,-127,-0.038884225,5154,1.57802595
2023-11-07 12:18:17.948,447,235326,222920,-308,-0.0943019,4693,1.436879275
2023-11-07 12:18:17.948,448,235341,222942,779,0.238510325,4916,1.5051563
2023-11-07 12:18:17.948,449,235365,222960,2134,0.65337745,5838,1.78744965
2023-11-07 12:18:17.948,450,235385,222981,1592,0.4874306,6775,2.074335625
2023-11-07 12:18:17.948,451,235441,223010,2236,0.6846073,6887,2.108627225
2023-11-07 12:18:17.948,452,235460,223035,3652,1.1181511,6002,1.83766235
2023-11-07 12:18:17.948,453,235506,223041,5019,1.536692325,4587,1.404424725
2023-11-07 12:18:17.979,454,235535,223071,5403,1.654263525,3672,1.1242746
2023-11-07 12:18:17.979,455,235550,223089,5560,1.702333,3913,1.198062775
2023-11-07 12:18:17.979,456,235572,223097,5771,1.766935925,4693,1.436879275
2023-11-07 12:18:17.979,457,235603,223102,6158,1.88542565,5265,1.612011375
2023-11-07 12:18:17.979,458,235620,223149,6234,1.90869495,5194,1.59027295
2023-11-07 12:18:17.979,459,235627,223157,6114,1.87195395,4110,1.25837925
2023-11-07 12:18:17.979,460,235688,223189,6691,2.048616925,2418,0.74033115
2023-11-07 12:18:18.011,461,235697,223233,7008,2.1456744,930,0.28474275
2023-11-07 12:18:18.011,462,235767,223233,6906,2.11444455,-131,-0.040108925
2023-11-07 12:18:18.011,463,235777,223259,6555,2.006977125,-907,-0.277700725
2023-11-07 12:18:18.011,464,235800,223266,6340,1.9411495,-1209,-0.370165575
2023-11-07 12:18:18.011,465,235783,223277,6745,2.065150375,-565,-0.172988875
2023-11-07 12:18:18.011,466,235815,223276,6166,1.88787505,768,0.2351424
2023-11-07 12:18:18.042,467,235811,223298,6049,1.852052575,1888,0.5780584
2023-11-07 12:18:18.042,468,235835,223304,6071,1.858788425,2530,0.77462275
2023-11-07 12:18:18.042,469,235839,223290,6745,2.065150375,3003,0.919443525
2023-11-07 12:18:18.042,470,235834,223316,8481,2.596670175,3495,1.070081625
2023-11-07 12:18:18.042,471,235858,223315,10511,3.218205425,4066,1.24490755
2023-11-07 12:18:18.042,472,235847,223309,11538,3.53264715,4798,1.46902765
2023-11-07 12:18:18.042,473,235875,223344,11850,3.62817375,5687,1.741217225
2023-11-07 12:18:18.073,474,235899,223344,11920,3.649606,6461,1.978196675
2023-11-07 12:18:18.073,475,235905,223349,11188,3.4254859,6735,2.062088625
2023-11-07 12:18:18.073,476,235924,223361,9377,2.871002975,6486,1.98585105
2023-11-07 12:18:18.073,477,235958,223382,6920,2.118731,6176,1.8909368
2023-11-07 12:18:18.073,478,236004,223400,6009,1.839805575,6164,1.8872627
2023-11-07 12:18:18.073,479,235985,223395,4810,1.47270175,6451,1.975134925
2023-11-07 12:18:18.103,480,236009,223402,3062,0.93750785,6814,2.08627645
2023-11-07 12:18:18.103,481,236003,223399,1303,0.398946025,7062,2.16220785
2023-11-07 12:18:18.103,482,236003,223399,642,0.19656435,7044,2.1566967
2023-11-07 12:18:18.103,483,236022,223383,613,0.187685275,6628,2.0293279
2023-11-07 12:18:18.103,484,236024,223392,184,0.0563362,6071,1.858788425
2023-11-07 12:18:18.103,485,236011,223393,216,0.0661338,5807,1.777958225
2023-11-07 12:18:18.103,486,236064,223415,-403,-0.123388525,6161,1.886344175
2023-11-07 12:18:18.103,487,236073,223410,-1127,-0.345059225,7247,2.218850225
2023-11-07 12:18:18.103,488,236102,223434,-1953,-0.597959775,8753,2.679949775
2023-11-07 12:18:18.136,489,236109,223453,-3265,-0.999661375,10100,3.0923675
2023-11-07 12:18:18.136,490,236146,223461,-5631,-1.724071425,11026,3.37588555
2023-11-07 12:18:18.136,491,236180,223468,-6828,-2.0905629,11597,3.550711475
2023-11-07 12:18:18.136,492,236202,223484,-7584,-2.3220312,11741,3.594800675
2023-11-07 12:18:18.136,493,236211,223477,-8789,-2.690972075,11124,3.4058907
2023-11-07 12:18:18.136,494,236249,223485,-9879,-3.024702825,9717,2.975102475
2023-11-07 12:18:18.136,495,236247,223494,-10977,-3.360882975,7981,2.443582675
2023-11-07 12:18:18.169,496,236266,223512,-11629,-3.560509075,6170,1.88909975
2023-11-07 12:18:18.169,497,236249,223518,-11805,-3.614395875,4291,1.313796925
2023-11-07 12:18:18.169,498,236247,223497,-11946,-3.65756655,2580,0.7899315
2023-11-07 12:18:18.169,499,236221,223497,-12205,-3.736865875,1428,0.4372179
2023-11-07 12:18:18.169,500,236194,223471,-12090,-3.70165575,854,0.26147345
2023-11-07 12:18:18.200,501,236148,223428,-12050,-3.68940875,517,0.158292475
2023-11-07 12:18:18.200,502,236073,223388,-12294,-3.76411545,190,0.05817325
2023-11-07 12:18:18.200,503,235965,223360,-12385,-3.791977375,-235,-0.071951125
2023-11-07 12:18:18.200,504,235858,223310,-12555,-3.844027125,-745,-0.228100375
2023-11-07 12:18:18.200,505,235697,223253,-12880,-3.943534,-1290,-0.39496575
2023-11-07 12:18:18.200,506,235534,223171,-12864,-3.9386352,-2113,-0.646947775
2023-11-07 12:18:18.200,507,235397,223108,-12453,-3.812797275,-3445,-1.054772875
2023-11-07 12:18:18.200,508,235265,223050,-11834,-3.62327495,-5004,-1.5320997
2023-11-07 12:18:18.230,509,235105,222988,-11084,-3.3936437,-6487,-1.986157225
2023-11-07 12:18:18.230,510,234958,222908,-10670,-3.26688725,-7886,-2.41449605
2023-11-07 12:18:18.230,511,234833,222876,-10262,-3.14196785,-9159,-2.804256825
2023-11-07 12:18:18.230,512,234719,222817,-9512,-2.9123366,-10218,-3.12849615
2023-11-07 12:18:18.230,513,234629,222783,-8286,-2.53696605,-10981,-3.362107675
2023-11-07 12:18:18.230,514,234545,222737,-7101,-2.174148675,-11453,-3.506622275
2023-11-07 12:18:18.264,515,234478,222723,-6534,-2.00054745,-11794,-3.61102795
2023-11-07 12:18:18.264,516,234428,222688,-6385,-1.954927375,-12103,-3.705636025
2023-11-07 12:18:18.264,517,234371,222693,-7558,-2.31407065,-12293,-3.763809275
2023-11-07 12:18:18.264,518,234340,222671,-8006,-2.45123705,-12334,-3.77636245
2023-11-07 12:18:18.264,519,234340,222674,-8075,-2.472363125,-12313,-3.769932775
2023-11-07 12:18:18.292,520,234314,222660,-7619,-2.332747325,-12288,-3.7622784
2023-11-07 12:18:18.292,521,234315,222665,-7288,-2.2314034,-12344,-3.7794242
2023-11-07 12:18:18.292,522,234323,222660,-6823,-2.089032025,-12528,-3.8357604
2023-11-07 12:18:18.292,523,234339,222658,-6125,-1.875321875,-12715,-3.893015125
2023-11-07 12:18:18.292,524,234355,222676,-6153,-1.883894775,-12725,-3.896076875
2023-11-07 12:18:18.292,525,234371,222694,-5802,-1.77642735,-12468,-3.8173899
2023-11-07 12:18:18.325,526,234398,222699,-5333,-1.632831275,-11987,-3.670119725
2023-11-07 12:18:18.325,527,234434,222697,-5557,-1.701414475,-11402,-3.49100735
2023-11-07 12:18:18.325,528,234462,222725,-6624,-2.0281032,-10782,-3.30117885
2023-11-07 12:18:18.325,529,234486,222721,-7183,-2.199255025,-10056,-3.0788958
2023-11-07 12:18:18.325,530,234548,222745,-7655,-2.343769625,-9159,-2.804256825
2023-11-07 12:18:18.325,531,234595,222765,-8027,-2.457666725,-8214,-2.51492145
2023-11-07 12:18:18.356,532,234632,222776,-7981,-2.443582675,-7415,-2.270287625
2023-11-07 12:18:18.356,533,234642,222783,-7646,-2.34101405,-6950,-2.12791625
2023-11-07 12:18:18.356,534,234695,222801,-7503,-2.297231025,-6926,-2.12056805
2023-11-07 12:18:18.356,535,234748,222809,-7778,-2.38142915,-7139,-2.185783325
2023-11-07 12:18:18.356,536,234777,222836,-7910,-2.42184425,-7349,-2.250080075
2023-11-07 12:18:18.385,537,234826,222834,-6870,-2.10342225,-7514,-2.30059895
2023-11-07 12:18:18.385,538,234847,222856,-5564,-1.7035577,-7647,-2.341320225
2023-11-07 12:18:18.385,539,234914,222867,-4800,-1.46964,-7602,-2.32754235
2023-11-07 12:18:18.385,540,234902,222868,-4242,-1.29879435,-7236,-2.2154823
2023-11-07 12:18:18.385,541,234942,222873,-3875,-1.186428125,-6657,-2.038206975
2023-11-07 12:18:18.385,542,234956,222874,-3200,-0.97976,-5986,-1.83276355
2023-11-07 12:18:18.418,543,234984,222907,-2085,-0.638374875,-5415,-1.657937625
2023-11-07 12:18:18.418,544,234978,222892,-906,-0.27739455,-5321,-1.629157175
2023-11-07 12:18:18.418,545,235010,222872,-184,-0.0563362,-5823,-1.782857025
2023-11-07 12:18:18.418,546,235010,222864,124,0.0379657,-6563,-2.009426525
2023-11-07 12:18:18.418,547,235022,222892,157,0.048069475,-7190,-2.20139825
2023-11-07 12:18:18.418,548,235086,222897,-78,-0.02388165,-7605,-2.328460875
2023-11-07 12:18:18.450,549,235099,222906,80,0.024494,-7800,-2.388165
2023-11-07 12:18:18.450,550,235116,222931,65,0.019901375,-7834,-2.39857495
2023-11-07 12:18:18.450,551,235147,222919,-875,-0.267903125,-7841,-2.400718175
2023-11-07 12:18:18.450,552,235167,222930,-2066,-0.63255755,-7913,-2.422762775
2023-11-07 12:18:18.450,553,235186,222925,-2954,-0.90444095,-7882,-2.41327135
2023-11-07 12:18:18.450,554,235206,222928,-3592,-1.0997806,-7439,-2.277635825
2023-11-07 12:18:18.450,555,235189,222932,-4328,-1.3251254,-6629,-2.029634075
2023-11-07 12:18:18.482,556,235212,222925,-4831,-1.479131425,-5786,-1.77152855
2023-11-07 12:18:18.482,557,235193,222926,-5523,-1.691004525,-5082,-1.55598135
2023-11-07 12:18:18.482,558,235227,222896,-6723,-2.058414525,-4454,-1.36370345
2023-11-07 12:18:18.482,559,235194,222908,-7453,-2.281922275,-3728,-1.1414204
2023-11-07 12:18:18.482,560,235174,222890,-7537,-2.307640975,-2813,-0.861270275
2023-11-07 12:18:18.482,561,235162,222870,-7851,-2.403779925,-1842,-0.56397435
2023-11-07 12:18:18.482,562,235159,222869,-8405,-2.573400875,-1039,-0.318115825
2023-11-07 12:18:18.510,563,235109,222870,-9020,-2.7616985,-480,-0.146964
2023-11-07 12:18:18.510,564,235090,222855,-9807,-3.002658225,-109,-0.033373075
2023-11-07 12:18:18.510,565,235056,222843,-10683,-3.270867525,146,0.04470155
2023-11-07 12:18:18.510,566,235056,222807,-11512,-3.5246866,342,0.10471185
2023-11-07 12:18:18.510,567,235017,222806,-11601,-3.551936175,318,0.09736365
2023-11-07 12:18:18.510,568,234986,222807,-11920,-3.649606,-182,-0.05572385
2023-11-07 12:18:18.542,569,234981,222798,-12257,-3.752786975,-1089,-0.333424575
2023-11-07 12:18:18.542,570,234960,222770,-12298,-3.76534015,-2045,-0.626127875
2023-11-07 12:18:18.542,571,234931,222765,-12706,-3.89025955,-2840,-0.869537
2023-11-07 12:18:18.574,572,234900,222740,-13516,-4.1382613,-3527,-1.079879225
2023-11-07 12:18:18.574,573,234903,222735,-13997,-4.285531475,-4205,-1.287465875
2023-11-07 12:18:18.574,574,234875,222714,-13809,-4.227970575,-4993,-1.528731775
2023-11-07 12:18:18.574,575,234867,222702,-14539,-4.451478325,-5924,-1.8137807
2023-11-07 12:18:18.574,576,234866,222707,-15603,-4.777248525,-6750,-2.06668125
2023-11-07 12:18:18.574,577,234877,222714,-16159,-4.947481825,-7257,-2.221911975
2023-11-07 12:18:18.605,578,234873,222693,-16881,-5.168540175,-7593,-2.324786775
2023-11-07 12:18:18.605,579,234871,222713,-17231,-5.275701425,-8003,-2.450318525
2023-11-07 12:18:18.605,580,234892,222711,-17265,-5.286111375,-8563,-2.621776525
2023-11-07 12:18:18.605,581,234890,222706,-17383,-5.322240025,-9234,-2.82721995
2023-11-07 12:18:18.605,582,234920,222722,-16956,-5.1915033,-9960,-3.049503
2023-11-07 12:18:18.605,583,234950,222709,-16727,-5.121389225,-10642,-3.25831435
2023-11-07 12:18:18.636,584,234964,222724,-16630,-5.09169025,-11173,-3.420893275
2023-11-07 12:18:18.636,585,234977,222709,-16705,-5.114653375,-11637,-3.562958475
2023-11-07 12:18:18.636,586,235001,222723,-16577,-5.075462975,-12081,-3.698900175
2023-11-07 12:18:18.636,587,235022,222723,-16129,-4.938296575,-12413,-3.800550275
2023-11-07 12:18:18.637,588,235053,222728,-15953,-4.884409775,-12675,-3.880768125
2023-11-07 12:18:18.637,589,235064,222746,-15512,-4.7493866,-12996,-3.9790503
2023-11-07 12:18:18.637,590,235086,222748,-14781,-4.525572675,-13317,-4.077332475
2023-11-07 12:18:18.667,591,235118,222745,-14097,-4.316148975,-13601,-4.164286175
2023-11-07 12:18:18.667,592,235130,222761,-13715,-4.199190125,-14095,-4.315536625
2023-11-07 12:18:18.667,593,235166,222770,-13661,-4.182656675,-14859,-4.549454325
2023-11-07 12:18:18.667,594,235206,222768,-13712,-4.1982716,-15636,-4.7873523
2023-11-07 12:18:18.667,595,235224,222787,-13597,-4.163061475,-16278,-4.98391665
2023-11-07 12:18:18.667,596,235252,222794,-13486,-4.12907605,-16745,-5.126900375
2023-11-07 12:18:18.667,597,235273,222797,-13263,-4.060799025,-17074,-5.22763195
2023-11-07 12:18:18.699,598,235322,222826,-12484,-3.8222887,-17318,-5.30233865
2023-11-07 12:18:18.699,599,235346,222839,-11883,-3.638277525,-17395,-5.325914125
2023-11-07 12:18:18.699,600,235394,222855,-11463,-3.509684025,-17279,-5.290397825
2023-11-07 12:18:18.699,601,235433,222862,-11159,-3.416606825,-17047,-5.219365225
2023-11-07 12:18:18.699,602,235460,222892,-11204,-3.4303847,-16791,-5.140984425
2023-11-07 12:18:18.732,603,235465,222892,-11062,-3.38690785,-16539,-5.063828325
2023-11-07 12:18:18.732,604,235500,222900,-11242,-3.44201935,-16310,-4.99371425
2023-11-07 12:18:18.732,605,235511,222887,-11508,-3.5234619,-16155,-4.946257125
2023-11-07 12:18:18.732,606,235539,222906,-11713,-3.586227775,-15965,-4.888083875
2023-11-07 12:18:18.732,607,235583,222912,-12192,-3.7328856,-15565,-4.765613875
2023-11-07 12:18:18.732,608,235601,222915,-12383,-3.791365025,-14955,-4.578847125
2023-11-07 12:18:18.732,609,235639,222943,-12129,-3.713596575,-14313,-4.382282775
2023-11-07 12:18:18.764,610,235671,222942,-11739,-3.594188325,-13840,-4.237462
2023-11-07 12:18:18.764,611,235689,222943,-11368,-3.4805974,-15551,-4.761327425
2023-11-07 12:18:18.764,612,235704,222955,-10736,-3.2870948,-15229,-4.662739075
2023-11-07 12:18:18.764,613,235745,222961,-10694,-3.27423545,-14929,-4.570886575
2023-11-07 12:18:18.764,614,235780,222962,-10643,-3.258620525,-14647,-4.484545225
2023-11-07 12:18:18.764,615,235806,222986,-10762,-3.29505535,-14359,-4.396366825
2023-11-07 12:18:18.794,616,235841,223004,-10919,-3.343124825,-14042,-4.29930935
2023-11-07 12:18:18.794,617,235876,223008,-11238,-3.44079465,-13693,-4.192454275
2023-11-07 12:18:18.794,618,235894,223014,-11451,-3.506009925,-13333,-4.082231275
2023-11-07 12:18:18.794,619,235897,223022,-11440,-3.502642,-12995,-3.978744125
2023-11-07 12:18:18.828,620,235926,223032,-11597,-3.550711475,-12697,-3.887503975
2023-11-07 12:18:18.828,621,235943,223041,-11917,-3.648687475,-12442,-3.80942935
2023-11-07 12:18:18.828,622,235961,223033,-11006,-3.36976205,-12227,-3.743601725
2023-11-07 12:18:18.828,623,235973,223049,-8774,-2.68637945,-12047,-3.688490225
2023-11-07 12:18:18.828,624,235978,223030,-7347,-2.249467725,-11900,-3.6434825
2023-11-07 12:18:18.828,625,235989,223029,-6594,-2.01891795,-11782,-3.60735385
2023-11-07 12:18:18.828,626,235991,223023,-5871,-1.797553425,-11695,-3.580716625
2023-11-07 12:18:18.858,627,235989,223036,-5936,-1.8174548,-11639,-3.563570825
2023-11-07 12:18:18.858,628,235994,223031,-6175,-1.890630625,-11612,-3.5553041
2023-11-07 12:18:18.858,629,235978,223012,-6186,-1.89399855,-11599,-3.551323825
2023-11-07 12:18:18.858,630,236009,223019,-6637,-2.032083475,-11589,-3.548262075
2023-11-07 12:18:18.858,631,236011,223009,-6965,-2.132508875,-11571,-3.542750925
2023-11-07 12:18:18.858,632,236037,223009,-6980,-2.1371015,-11536,-3.5320348
2023-11-07 12:18:18.888,633,236035,223024,-6874,-2.10464695,-11480,-3.514889
2023-11-07 12:18:18.888,634,236065,223029,-7014,-2.14751145,-11415,-3.494987625
2023-11-07 12:18:18.888,635,236053,223023,-7130,-2.18302775,-11348,-3.4744739
2023-11-07 12:18:18.888,636,236092,223043,-7138,-2.18547715,-11284,-3.4548787
2023-11-07 12:18:18.888,637,236102,223053,-7013,-2.147205275,-11237,-3.440488475
2023-11-07 12:18:18.888,638,236125,223047,-6862,-2.10097285,-11210,-3.43222175
2023-11-07 12:18:18.888,639,236136,223043,-6669,-2.041881075,-11175,-3.421505625
2023-11-07 12:18:18.888,640,236155,223070,-6802,-2.08260235,-11080,-3.392419
2023-11-07 12:18:18.888,641,236167,223075,-6394,-1.95768295,-10902,-3.33791985
2023-11-07 12:18:18.918,642,236168,223072,-6486,-1.98585105,-10641,-3.258008175
2023-11-07 12:18:18.918,643,236165,223079,-6857,-2.099441975,-10305,-3.155133375
2023-11-07 12:18:18.918,644,236173,223062,-7397,-2.264776475,-9899,-3.030826325
2023-11-07 12:18:18.918,645,236179,223065,-8004,-2.4506247,-9434,-2.88845495
2023-11-07 12:18:18.918,646,236169,223061,-8231,-2.520126425,-8932,-2.7347551
2023-11-07 12:18:18.918,647,236160,223067,-8842,-2.70719935,-8434,-2.58227995
2023-11-07 12:18:18.918,648,236178,223046,-9394,-2.87620795,-7969,-2.439908575
2023-11-07 12:18:18.950,649,236183,223034,-10018,-3.06726115,-7536,-2.3073348
2023-11-07 12:18:18.950,650,236158,223028,-10395,-3.182689125,-7151,-2.189457425
2023-11-07 12:18:18.950,651,236127,223020,-10478,-3.20810165,-6853,-2.098217275
2023-11-07 12:18:18.950,652,236059,222985,-10630,-3.25464025,-6660,-2.0391255
2023-11-07 12:18:18.950,653,235992,222948,-11001,-3.368231175,-6568,-2.0109574
2023-11-07 12:18:18.982,654,235866,222870,-11021,-3.374354675,-6571,-2.011875925
2023-11-07 12:18:18.983,655,235720,222823,-11023,-3.374967025,-6649,-2.035757575
2023-11-07 12:18:18.983,656,235574,222753,-10553,-3.231064775,-6768,-2.0721924
2023-11-07 12:18:18.983,657,235443,222688,-10083,-3.087162525,-6887,-2.108627225
2023-11-07 12:18:18.983,658,235270,222620,-10167,-3.112881225,-6956,-2.1297533
2023-11-07 12:18:18.983,659,235108,222553,-10061,-3.080426675,-6955,-2.129447125
2023-11-07 12:18:18.983,660,234952,222486,-9867,-3.021028725,-6913,-2.116587775
2023-11-07 12:18:19.016,661,234794,222420,-9728,-2.9784704,-6883,-2.107402525
2023-11-07 12:18:19.016,662,234662,222369,-9749,-2.984900075,-6901,-2.112913675
2023-11-07 12:18:19.016,663,234575,222326,-9907,-3.033275725,-6976,-2.1358768
2023-11-07 12:18:19.016,664,234487,222290,-9325,-2.855081875,-7104,-2.1750672
2023-11-07 12:18:19.016,665,234424,222268,-9167,-2.806706225,-7283,-2.229872525
2023-11-07 12:18:19.016,666,234343,222246,-9109,-2.788948075,-7509,-2.299068075
2023-11-07 12:18:19.041,667,234308,222220,-8610,-2.63616675,-7779,-2.381735325
2023-11-07 12:18:19.041,668,234267,222203,-8053,-2.465627275,-8085,-2.475424875
2023-11-07 12:18:19.041,669,234225,222196,-7552,-2.3122336,-8434,-2.58227995
2023-11-07 12:18:19.041,670,234224,222179,-6834,-2.09239995,-8824,-2.7016882
2023-11-07 12:18:19.041,671,234215,222181,-6434,-1.96992995,-9229,-2.825689075
2023-11-07 12:18:19.074,672,234205,222181,-6117,-1.872872475,-9612,-2.9429541
2023-11-07 12:18:19.074,673,234225,222177,-6337,-1.940230975,-9937,-3.042460975
2023-11-07 12:18:19.074,674,234229,222179,-6218,-1.90379615,-10188,-3.1193109
2023-11-07 12:18:19.074,675,234249,222181,-6413,-1.963500275,-10368,-3.1744224
2023-11-07 12:18:19.074,676,234272,222190,-6966,-2.13281505,-10481,-3.209020175
2023-11-07 12:18:19.074,677,234314,222198,-7552,-2.3122336,-10528,-3.2234104
2023-11-07 12:18:19.074,678,234340,222200,-8230,-2.51982025,-10516,-3.2197363
2023-11-07 12:18:19.103,679,234360,222207,-8437,-2.583198475,-10469,-3.205346075
2023-11-07 12:18:19.103,680,234392,222213,-8587,-2.629124725,-10399,-3.183913825
2023-11-07 12:18:19.103,681,234449,222224,-8503,-2.603406025,-10294,-3.15176545
2023-11-07 12:18:19.103,682,234481,222237,-7959,-2.436846825,-10154,-3.10890095
2023-11-07 12:18:19.103,683,234501,222240,-8034,-2.45980995,-9991,-3.058994425
2023-11-07 12:18:19.103,684,234515,222271,-7478,-2.28957665,-9816,-3.0054138
2023-11-07 12:18:19.135,685,234598,222285,-6811,-2.085357925,-9631,-2.948771425
2023-11-07 12:18:19.135,686,234617,222293,-6580,-2.0146315,-9424,-2.8853932
2023-11-07 12:18:19.135,687,234658,222309,-6157,-1.885119475,-9183,-2.811605025
2023-11-07 12:18:19.135,688,234689,222317,-5852,-1.7917361,-8907,-2.727100725
2023-11-07 12:18:19.135,689,234714,222323,-5635,-1.725296125,-8606,-2.63494205
2023-11-07 12:18:19.169,690,234759,222326,-5512,-1.6876366,-8286,-2.53696605
2023-11-07 12:18:19.169,691,234790,222333,-5961,-1.825109175,-7955,-2.435622125
2023-11-07 12:18:19.169,692,234812,222347,-6541,-2.002690675,-7640,-2.339177
2023-11-07 12:18:19.169,693,234823,222375,-6981,-2.137407675,-7369,-2.256203575
2023-11-07 12:18:19.169,694,234855,222361,-6912,-2.1162816,-7161,-2.192519175
2023-11-07 12:18:19.169,695,234889,222383,-7288,-2.2314034,-7031,-2.152716425
2023-11-07 12:18:19.197,696,234918,222395,-7629,-2.335809075,-6983,-2.138020025
2023-11-07 12:18:19.197,697,234922,222388,-7861,-2.406841675,-7011,-2.146592925
2023-11-07 12:18:19.197,698,234955,222388,-8458,-2.58962815,-7103,-2.174761025
2023-11-07 12:18:19.197,699,234987,222411,-8725,-2.671376875,-7241,-2.217013175
2023-11-07 12:18:19.197,700,235019,222421,-8905,-2.726488375,-7404,-2.2669197
2023-11-07 12:18:19.197,701,235030,222417,-9363,-2.866716525,-7561,-2.314989175
2023-11-07 12:18:19.229,702,235089,222420,-9611,-2.942647925,-7681,-2.351730175
2023-11-07 12:18:19.229,703,235101,222436,-9586,-2.93499355,-7750,-2.37285625
2023-11-07 12:18:19.229,704,235116,222447,-9366,-2.86763505,-7751,-2.373162425
2023-11-07 12:18:19.229,705,235146,222440,-9114,-2.79047895,-7675,-2.349893125
2023-11-07 12:18:19.229,706,235179,222445,-9232,-2.8266076,-7522,-2.30304835
2023-11-07 12:18:19.229,707,235177,222445,-9488,-2.9049884,-7309,-2.237833075
2023-11-07 12:18:19.229,708,235183,222456,-9808,-3.0029644,-7066,-2.16343255
2023-11-07 12:18:19.261,709,235186,222463,-9772,-2.9919421,-6833,-2.092093775
2023-11-07 12:18:19.261,710,235186,222460,-9640,-2.951527,-6636,-2.0317773
2023-11-07 12:18:19.261,711,235206,222445,-9583,-2.934075025,-6485,-1.985544875
2023-11-07 12:18:19.261,712,235195,222452,-9831,-3.010006425,-6399,-1.959213825
2023-11-07 12:18:19.261,713,235195,222443,-9768,-2.9907174,-6397,-1.958601475
2023-11-07 12:18:19.261,714,235166,222420,-9593,-2.937136775,-6473,-1.981870775
2023-11-07 12:18:19.261,715,235142,222417,-9466,-2.89825255,-6617,-2.025959975
2023-11-07 12:18:19.291,716,235140,222397,-9715,-2.974490125,-6817,-2.087194975
2023-11-07 12:18:19.291,717,235115,222392,-9598,-2.93866765,-7065,-2.163126375
2023-11-07 12:18:19.291,718,235090,222381,-9570,-2.93009475,-7362,-2.25406035
2023-11-07 12:18:19.291,719,235095,222366,-9805,-3.002045875,-7692,-2.3550981
2023-11-07 12:18:19.291,720,235055,222360,-9455,-2.894884625,-8022,-2.45613585
2023-11-07 12:18:19.291,721,235038,222358,-9228,-2.8253829,-8322,-2.54798835
2023-11-07 12:18:19.326,722,235014,222334,-9427,-2.886311725,-8578,-2.62636915
2023-11-07 12:18:19.326,723,234996,222336,-9647,-2.953670225,-8787,-2.690359725
2023-11-07 12:18:19.326,724,234983,222345,-10116,-3.0972663,-8961,-2.743634175
2023-11-07 12:18:19.326,725,234977,222312,-10482,-3.20932635,-9114,-2.79047895
2023-11-07 12:18:19.326,726,234964,222326,-10957,-3.354759475,-9251,-2.832424925
2023-11-07 12:18:19.326,727,234960,222314,-11065,-3.387826375,-9371,-2.869165925
2023-11-07 12:18:19.326,728,234956,222313,-11134,-3.40895245,-9473,-2.900395775
2023-11-07 12:18:19.355,729,234948,222294,-11284,-3.4548787,-9551,-2.924277425
2023-11-07 12:18:19.355,730,234945,222297,-11345,-3.473555375,-9595,-2.937749125
2023-11-07 12:18:19.355,731,234941,222292,-11163,-3.417831525,-9607,-2.941423225
2023-11-07 12:18:19.355,732,234952,222280,-10948,-3.3520039,-9605,-2.940810875
2023-11-07 12:18:19.355,733,234974,222304,-10901,-3.337613675,-9614,-2.94356645
2023-11-07 12:18:19.355,734,234962,222302,-10717,-3.281277475,-9637,-2.950608475
2023-11-07 12:18:19.389,735,234981,222315,-10552,-3.2307586,-9664,-2.9588752
2023-11-07 12:18:19.389,736,235000,222309,-10521,-3.221267175,-9686,-2.96561105
2023-11-07 12:18:19.389,737,235007,222325,-10379,-3.177790325,-9691,-2.967141925
2023-11-07 12:18:19.389,738,235053,222336,-10259,-3.141049325,-9676,-2.9625493
2023-11-07 12:18:19.389,739,235071,222337,-10306,-3.15543955,-9649,-2.954282575
2023-11-07 12:18:19.417,740,235102,222352,-10423,-3.191262025,-9621,-2.945709675
2023-11-07 12:18:19.417,741,235126,222364,-10687,-3.272092225,-9610,-2.94234175
2023-11-07 12:18:19.417,742,235152,222365,-10937,-3.348635975,-9639,-2.951220825
2023-11-07 12:18:19.417,743,235171,222401,-11027,-3.376191725,-9715,-2.974490125
2023-11-07 12:18:19.417,744,235214,222414,-11064,-3.3875202,-9827,-3.008781725
2023-11-07 12:18:19.417,745,235249,222420,-11024,-3.3752732,-9962,-3.05011535
2023-11-07 12:18:19.417,746,235301,222406,-11097,-3.397623975,-10112,-3.0960416
2023-11-07 12:18:19.450,747,235311,222437,-11209,-3.431915575,-10265,-3.142886375
2023-11-07 12:18:19.450,748,235338,222432,-11438,-3.50202965,-10419,-3.190037325
2023-11-07 12:18:19.450,749,235361,222432,-11782,-3.60735385,-10572,-3.2368821
2023-11-07 12:18:19.450,750,235393,222454,-11598,-3.55101765,-10716,-3.2809713
2023-11-07 12:18:19.450,751,235413,222466,-11658,-3.56938815,-10841,-3.319243175
2023-11-07 12:18:19.450,752,235421,222463,-11841,-3.625418175,-10936,-3.3483298
2023-11-07 12:18:19.479,753,235456,222466,-11475,-3.513358125,-10989,-3.364557075
2023-11-07 12:18:19.479,754,235458,222461,-11414,-3.49468145,-10996,-3.3667003
2023-11-07 12:18:19.479,755,235470,222481,-11302,-3.46038985,-10958,-3.35506565
2023-11-07 12:18:19.479,756,235517,222473,-11701,-3.582553675,-10888,-3.3336334
2023-11-07 12:18:19.479,757,235542,222482,-11876,-3.6361343,-10802,-3.30730235
2023-11-07 12:18:19.479,758,235570,222505,-12255,-3.752174625,-10719,-3.281889825
2023-11-07 12:18:19.479,759,235606,222498,-12560,-3.845558,-10659,-3.263519325
2023-11-07 12:18:19.479,760,235618,222509,-12866,-3.93924755,-10630,-3.25464025
2023-11-07 12:18:19.513,761,235654,222520,-12453,-3.812797275,-10628,-3.2540279
2023-11-07 12:18:19.513,762,235655,222531,-11940,-3.6557295,-10645,-3.259232875
2023-11-07 12:18:19.513,763,235679,222528,-11264,-3.4487552,-10681,-3.270255175
2023-11-07 12:18:19.513,764,235699,222527,-10776,-3.2993418,-10733,-3.286176275
2023-11-07 12:18:19.513,765,235712,222534,-10871,-3.328428425,-10807,-3.308833225
2023-11-07 12:18:19.513,766,235731,222546,-11069,-3.389051075,-10906,-3.33914455
2023-11-07 12:18:19.513,767,235744,222558,-11382,-3.48488385,-11018,-3.37343615
2023-11-07 12:18:19.543,768,235760,222555,-11354,-3.47631095,-11136,-3.4095648
2023-11-07 12:18:19.543,769,235789,222560,-11319,-3.465594825,-11252,-3.4450811
2023-11-07 12:18:19.543,770,235762,222554,-11613,-3.555610275,-11350,-3.47508625
2023-11-07 12:18:19.543,771,235792,222556,-11492,-3.5185631,-11422,-3.49713085
2023-11-07 12:18:19.543,772,235820,222546,-11716,-3.5871463,-11471,-3.512133425
2023-11-07 12:18:19.576,773,235831,222563,-11562,-3.53999535,-11510,-3.52407425
2023-11-07 12:18:19.576,774,235839,222557,-11331,-3.469268925,-11552,-3.5369336
2023-11-07 12:18:19.576,775,235850,222558,-11559,-3.539076825,-11610,-3.55469175
2023-11-07 12:18:19.576,776,235849,222568,-11455,-3.507234625,-11689,-3.578879575
2023-11-07 12:18:19.576,777,235872,222578,-11387,-3.486414725,-11786,-3.60857855
2023-11-07 12:18:19.576,778,235881,222558,-11246,-3.44324405,-11887,-3.639502225
2023-11-07 12:18:19.576,779,235886,222570,-11024,-3.3752732,-11963,-3.662771525
2023-11-07 12:18:19.605,780,235893,222555,-10811,-3.310057925,-11990,-3.67103825
2023-11-07 12:18:19.605,781,235896,222557,-10848,-3.3213864,-11968,-3.6643024
2023-11-07 12:18:19.605,782,235879,222554,-10631,-3.254946425,-11920,-3.649606
2023-11-07 12:18:19.605,783,235892,222541,-10592,-3.2430056,-11866,-3.63307255
2023-11-07 12:18:19.605,784,235890,222549,-10498,-3.21422515,-11815,-3.617457625
2023-11-07 12:18:19.605,785,235899,222537,-10072,-3.0837946,-11763,-3.601536525
2023-11-07 12:18:19.638,786,235912,222545,-9895,-3.029601625,-11707,-3.584390725
2023-11-07 12:18:19.638,787,235887,222557,-9652,-2.9552011,-11642,-3.56448935
2023-11-07 12:18:19.638,788,235906,222554,-9334,-2.85783745,-11563,-3.540301525
2023-11-07 12:18:19.638,789,235915,222543,-9328,-2.8560004,-11479,-3.514582825
2023-11-07 12:18:19.638,790,235903,222545,-9229,-2.825689075,-11404,-3.4916197
2023-11-07 12:18:19.666,791,235934,222528,-8988,-2.7519009,-11353,-3.476004775
2023-11-07 12:18:19.666,792,235921,222528,-8935,-2.735673625,-11346,-3.47386155
2023-11-07 12:18:19.666,793,235927,222527,-8892,-2.7225081,-11377,-3.483352975
2023-11-07 12:18:19.666,794,235916,222527,-8837,-2.705668475,-11429,-3.499274075
2023-11-07 12:18:19.666,795,235955,222533,-8819,-2.700157325,-11474,-3.51305195
2023-11-07 12:18:19.666,796,235967,222544,-8833,-2.704443775,-11495,-3.519481625
2023-11-07 12:18:19.666,797,235974,222550,-8479,-2.596057825,-11480,-3.514889
2023-11-07 12:18:19.698,798,235990,222554,-8491,-2.599731925,-11426,-3.49835555
2023-11-07 12:18:19.698,799,235989,222530,-8403,-2.572788525,-11344,-3.4732492
2023-11-07 12:18:19.698,800,236013,222554,-8393,-2.569726775,-11247,-3.443550225
2023-11-07 12:18:19.698,801,235994,222543,-8339,-2.553193325,-11150,-3.41385125
2023-11-07 12:18:19.698,802,235967,222526,-8361,-2.559929175,-11051,-3.383539925
2023-11-07 12:18:19.698,803,235927,222504,-8354,-2.55778595,-10937,-3.348635975
2023-11-07 12:18:19.731,804,235873,222466,-8597,-2.632186475,-10796,-3.3054653
2023-11-07 12:18:19.731,805,235796,222441,-8683,-2.658517525,-10629,-3.254334075
2023-11-07 12:18:19.731,806,235681,222385,-8291,-2.538496925,-10448,-3.1989164
2023-11-07 12:18:19.731,807,235554,222330,-8014,-2.45368645,-10267,-3.143498725
2023-11-07 12:18:19.731,808,235389,222263,-8097,-2.479098975,-10091,-3.089611925
2023-11-07 12:18:19.762,809,235254,222191,-7792,-2.3857156,-9921,-3.037562175
2023-11-07 12:18:19.762,810,235083,222117,-7805,-2.389695875,-9757,-2.987349475
2023-11-07 12:18:19.762,811,234930,222058,-7938,-2.43041715,-9598,-2.93866765
2023-11-07 12:18:19.762,812,234773,222002,-7984,-2.4445012,-9443,-2.891210525
2023-11-07 12:18:19.762,813,234631,221932,-8086,-2.47573105,-9299,-2.847121325
2023-11-07 12:18:19.762,814,234520,221894,-8129,-2.488896575,-9164,-2.8057877
2023-11-07 12:18:19.794,815,234408,221844,-7938,-2.43041715,-9042,-2.76843435
2023-11-07 12:18:19.794,816,234335,221817,-8015,-2.453992625,-8938,-2.73659215
2023-11-07 12:18:19.794,817,234277,221800,-7846,-2.40224905,-8848,-2.7090364
2023-11-07 12:18:19.794,818,234226,221769,-7798,-2.38755265,-8768,-2.6845424
2023-11-07 12:18:19.794,819,234175,221769,-8083,-2.474812525,-8699,-2.663416325
2023-11-07 12:18:19.794,820,234145,221747,-7954,-2.43531595,-8638,-2.64473965
2023-11-07 12:18:19.823,821,234142,221742,-8003,-2.450318525,-8589,-2.629737075
2023-11-07 12:18:19.823,822,234105,221755,-7958,-2.43654065,-8552,-2.6184086
2023-11-07 12:18:19.823,823,234114,221741,-7812,-2.3918391,-8517,-2.607692475
2023-11-07 12:18:19.823,824,234131,221740,-7725,-2.365201875,-8476,-2.5951393
2023-11-07 12:18:19.823,825,234125,221747,-7749,-2.372550075,-8435,-2.582586125
2023-11-07 12:18:19.823,826,234149,221744,-7997,-2.448481475,-8388,-2.5681959
2023-11-07 12:18:19.823,827,234203,221775,-8240,-2.522882,-8334,-2.55166245
2023-11-07 12:18:19.855,828,234201,221764,-8146,-2.49410155,-8276,-2.5339043
2023-11-07 12:18:19.855,829,234232,221798,-8168,-2.5008374,-8224,-2.5179832
2023-11-07 12:18:19.855,830,234277,221793,-8251,-2.526249925,-8186,-2.50634855
2023-11-07 12:18:19.855,831,234315,221828,-8170,-2.50144975,-8158,-2.49777565
2023-11-07 12:18:19.855,832,234352,221833,-7867,-2.408678725,-8128,-2.4885904
2023-11-07 12:18:19.855,833,234386,221871,-7849,-2.403167575,-8089,-2.476649575
2023-11-07 12:18:19.855,834,234443,221870,-7662,-2.34591285,-8046,-2.46348405
2023-11-07 12:18:19.885,835,234487,221881,-7405,-2.267225875,-8006,-2.45123705
2023-11-07 12:18:19.885,836,234511,221900,-6783,-2.076785025,-7975,-2.441745625
2023-11-07 12:18:19.885,837,234558,221907,-6717,-2.056577475,-7962,-2.43776535
2023-11-07 12:18:19.885,838,234599,221919,-6962,-2.13159035,-7966,-2.43899005
2023-11-07 12:18:19.885,839,234639,221939,-6637,-2.032083475,-7980,-2.4432765
2023-11-07 12:18:19.885,840,234652,221947,-6242,-1.91114435,-7990,-2.44633825
2023-11-07 12:18:19.916,841,234674,221952,-6053,-1.853277275,-7987,-2.445419725
2023-11-07 12:18:19.916,842,234714,221965,-5986,-1.83276355,-7968,-2.4396024
2023-11-07 12:18:19.916,843,234752,221970,-5668,-1.7353999,-7947,-2.433172725
2023-11-07 12:18:19.917,844,234754,221977,-5081,-1.555675175,-7935,-2.429498625
2023-11-07 12:18:19.917,845,234782,221981,-4750,-1.45433125,-7937,-2.430110975
2023-11-07 12:18:19.917,846,234811,221979,-4467,-1.367683725,-7956,-2.4359283
2023-11-07 12:18:19.917,847,234837,222003,-4170,-1.27674975,-7987,-2.445419725
2023-11-07 12:18:19.948,848,234859,222001,-4060,-1.2430705,-8019,-2.455217325
2023-11-07 12:18:19.948,849,234886,222034,-3919,-1.199899825,-8039,-2.461340825
2023-11-07 12:18:19.948,850,234915,222028,-3807,-1.165608225,-8041,-2.461953175
2023-11-07 12:18:19.948,851,234977,222045,-3964,-1.2136777,-8028,-2.4579729
2023-11-07 12:18:19.948,852,234990,222063,-4069,-1.245826075,-7998,-2.44878765
2023-11-07 12:18:19.948,853,235029,222064,-3961,-1.212759175,-7946,-2.43286655
2023-11-07 12:18:19.981,854,235048,222069,-3889,-1.190714575,-7870,-2.40959725
2023-11-07 12:18:19.981,855,235079,222093,-3749,-1.147850075,-7776,-2.3808168
2023-11-07 12:18:19.981,856,235117,222110,-3712,-1.1365216,-7660,-2.3453005
2023-11-07 12:18:19.981,857,235114,222108,-4101,-1.255623675,-7512,-2.2999866
2023-11-07 12:18:19.981,858,235155,222115,-4072,-1.2467446,-7332,-2.2448751
2023-11-07 12:18:20.013,859,235163,222125,-4312,-1.3202266,-7134,-2.18425245
2023-11-07 12:18:20.013,860,235181,222130,-4635,-1.419121125,-6928,-2.1211804
2023-11-07 12:18:20.013,861,235198,222117,-4527,-1.386054225,-6709,-2.054128075
2023-11-07 12:18:20.013,862,235203,222120,-4628,-1.4169779,-6471,-1.981258425
2023-11-07 12:18:20.013,863,235173,222108,-4533,-1.387891275,-6219,-1.904102325
2023-11-07 12:18:20.013,864,235199,222113,-4561,-1.396464175,-5964,-1.8260277
2023-11-07 12:18:20.013,865,235175,222096,-4736,-1.4500448,-5705,-1.746728375
2023-11-07 12:18:20.043,866,235157,222095,-4797,-1.468721475,-5439,-1.665285825
2023-11-07 12:18:20.043,867,235113,222080,-4541,-1.390340675,-5177,-1.585067975
2023-11-07 12:18:20.043,868,235089,222061,-4503,-1.378706025,-4939,-1.512198325
2023-11-07 12:18:20.043,869,235057,222054,-4498,-1.37717515,-4727,-1.447289225
2023-11-07 12:18:20.043,870,235029,222027,-4329,-1.325431575,-4533,-1.387891275
2023-11-07 12:18:20.043,871,234978,222018,-4775,-1.461985625,-4353,-1.332779775
2023-11-07 12:18:20.076,872,234958,221992,-4366,-1.33676005,-4197,-1.285016475
2023-11-07 12:18:20.076,873,234922,221970,-4071,-1.246438425,-4074,-1.24735695
2023-11-07 12:18:20.076,874,234907,221977,-4278,-1.30981665,-3991,-1.221944425
2023-11-07 12:18:20.076,875,234878,221956,-4551,-1.393402425,-3948,-1.2087789
2023-11-07 12:18:20.076,876,234852,221929,-4622,-1.41514085,-3941,-1.206635675
2023-11-07 12:18:20.104,877,234832,221930,-4815,-1.474232625,-3968,-1.2149024
2023-11-07 12:18:20.104,878,234825,221922,-4857,-1.487091975,-4020,-1.2308235
2023-11-07 12:18:20.104,879,234808,221930,-5187,-1.588129725,-4085,-1.250724875
2023-11-07 12:18:20.104,880,234805,221922,-5268,-1.6129299,-4150,-1.27062625
2023-11-07 12:18:20.104,881,234818,221903,-5192,-1.5896606,-4214,-1.29022145
2023-11-07 12:18:20.104,882,234811,221914,-5629,-1.723459075,-4281,-1.310735175
2023-11-07 12:18:20.137,883,234818,221910,-5566,-1.70417005,-4354,-1.33308595
2023-11-07 12:18:20.137,884,234823,221906,-5213,-1.596090275,-4424,-1.3545182
2023-11-07 12:18:20.137,885,234847,221923,-5402,-1.65395735,-4486,-1.37350105
2023-11-07 12:18:20.137,886,234864,221932,-5507,-1.686105725,-4538,-1.38942215
2023-11-07 12:18:20.137,887,234874,221924,-5524,-1.6913107,-4578,-1.40166915
2023-11-07 12:18:20.137,888,234902,221943,-5654,-1.73111345,-4603,-1.409323525
2023-11-07 12:18:20.170,889,234904,221947,-6061,-1.855726675,-4605,-1.409935875
2023-11-07 12:18:20.170,890,234919,221974,-6215,-1.902877625,-4579,-1.401975325
2023-11-07 12:18:20.170,891,234959,221965,-6172,-1.8897121,-4544,-1.3912592
2023-11-07 12:18:20.170,892,234980,221966,-6498,-1.98952515,-4517,-1.382992475
2023-11-07 12:18:20.170,893,234986,221979,-6546,-2.00422155,-4501,-1.378093675
2023-11-07 12:18:20.170,894,235022,221965,-6375,-1.951865625,-4496,-1.3765628
2023-11-07 12:18:20.170,895,235040,221994,-6536,-2.0011598,-4507,-1.379930725
2023-11-07 12:18:20.197,896,235049,221996,-6600,-2.020755,-4538,-1.38942215
2023-11-07 12:18:20.197,897,235096,221989,-6666,-2.04096255,-4588,-1.4047309
2023-11-07 12:18:20.197,898,235106,222006,-6783,-2.076785025,-4653,-1.424632275
2023-11-07 12:18:20.197,899,235156,222021,-7094,-2.17200545,-4732,-1.4488201
2023-11-07 12:18:20.197,900,235175,222047,-7218,-2.20997115,-4826,-1.47760055
2023-11-07 12:18:20.197,901,235225,222039,-7211,-2.207827925,-4929,-1.509136575
2023-11-07 12:18:20.197,902,235249,222065,-7292,-2.2326281,-5033,-1.540978775
2023-11-07 12:18:20.231,903,235297,222084,-7583,-2.321725025,-5132,-1.5712901
2023-11-07 12:18:20.231,904,235313,222076,-7694,-2.35571045,-5222,-1.59884585
2023-11-07 12:18:20.231,905,235355,222089,-8010,-2.45246175,-5309,-1.625483075
2023-11-07 12:18:20.231,906,235376,222108,-8219,-2.516452325,-5401,-1.653651175
2023-11-07 12:18:20.231,907,235395,222106,-8539,-2.614428325,-5493,-1.681819275
2023-11-07 12:18:20.231,908,235415,222124,-8941,-2.737510675,-5584,-1.7096812
2023-11-07 12:18:20.263,909,235423,222117,-9324,-2.8547757,-5679,-1.738767825
2023-11-07 12:18:20.263,910,235457,222121,-9800,-3.000515,-5774,-1.76785445
2023-11-07 12:18:20.263,911,235508,222137,-9681,-2.964080175,-5867,-1.796328725
2023-11-07 12:18:20.263,912,235519,222146,-9341,-2.859980675,-5967,-1.826946225
2023-11-07 12:18:20.263,913,235537,222153,-8554,-2.61902095,-6072,-1.8590946
2023-11-07 12:18:20.263,914,235578,222160,-8343,-2.554418025,-6176,-1.8909368
2023-11-07 12:18:20.263,915,235595,222168,-8530,-2.61167275,-6283,-1.923697525
2023-11-07 12:18:20.293,916,235625,222192,-8695,-2.662191625,-6397,-1.958601475
2023-11-07 12:18:20.293,917,235655,222196,-8790,-2.69127825,-6515,-1.994730125
2023-11-07 12:18:20.293,918,235663,222196,-9144,-2.7996642,-6627,-2.029021725
2023-11-07 12:18:20.293,919,235691,222205,-9014,-2.75986145,-6735,-2.062088625
2023-11-07 12:18:20.293,920,235705,222198,-8803,-2.695258525,-6836,-2.0930123
2023-11-07 12:18:20.293,921,235732,222201,-8991,-2.752819425,-6937,-2.123935975
2023-11-07 12:18:20.326,922,235724,222205,-8983,-2.750370025,-7048,-2.1579214
2023-11-07 12:18:20.326,923,235743,222204,-9071,-2.777313425,-7179,-2.198030325
2023-11-07 12:18:20.326,924,235746,222227,-9119,-2.792009825,-7333,-2.245181275
2023-11-07 12:18:20.326,925,235771,222197,-9265,-2.836711375,-7515,-2.300905125
2023-11-07 12:18:20.326,926,235791,222209,-9358,-2.86518565,-7725,-2.365201875
2023-11-07 12:18:20.355,927,235773,222212,-9534,-2.91907245,-7954,-2.43531595
2023-11-07 12:18:20.355,928,235809,222216,-9614,-2.94356645,-8186,-2.50634855
2023-11-07 12:18:20.355,929,235812,222211,-9712,-2.9735716,-8404,-2.5730947
2023-11-07 12:18:20.355,930,235798,222217,-9772,-2.9919421,-8586,-2.62881855
2023-11-07 12:18:20.355,931,235819,222222,-9838,-3.01214965,-8726,-2.67168305
2023-11-07 12:18:20.355,932,235832,222221,-10309,-3.156358075,-8722,-2.67045835
2023-11-07 12:18:20.355,933,235829,222225,-10254,-3.13951845,-8709,-2.666478075
2023-11-07 12:18:20.388,934,235866,222221,-10123,-3.099409525,-8694,-2.66188545
2023-11-07 12:18:20.388,935,235851,222220,-10304,-3.1548272,-8688,-2.6600484
2023-11-07 12:18:20.388,936,235868,222230,-10491,-3.212081925,-8698,-2.66311015
2023-11-07 12:18:20.388,937,235889,222239,-10540,-3.2270845,-8723,-2.670764525
2023-11-07 12:18:20.388,938,235890,222246,-10557,-3.232289475,-8760,-2.682093
2023-11-07 12:18:20.388,939,235912,222233,-10733,-3.286176275,-8800,-2.69434
2023-11-07 12:18:20.416,940,235913,222245,-10740,-3.2883195,-8834,-2.70474995
2023-11-07 12:18:20.416,941,235928,222243,-10620,-3.2515785,-8860,-2.7127105
2023-11-07 12:18:20.416,942,235951,222258,-10283,-3.148397525,-8888,-2.7212834
2023-11-07 12:18:20.416,943,235964,222262,-10071,-3.083488425,-8930,-2.73414275
2023-11-07 12:18:20.416,944,235960,222276,-10023,-3.068792025,-9006,-2.75741205
2023-11-07 12:18:20.416,945,235967,222260,-10060,-3.0801205,-9104,-2.7874172
2023-11-07 12:18:20.416,946,235974,222250,-9960,-3.049503,-9201,-2.817116175
2023-11-07 12:18:20.416,947,235976,222251,-10165,-3.112268875,-9285,-2.842834875
2023-11-07 12:18:20.448,948,235953,222245,-10294,-3.15176545,-9357,-2.864879475
2023-11-07 12:18:20.448,949,235971,222238,-10271,-3.144723425,-9431,-2.887536425
2023-11-07 12:18:20.448,950,235977,222246,-10350,-3.16891125,-9518,-2.91417365
2023-11-07 12:18:20.448,951,235980,222250,-10405,-3.185750875,-9620,-2.9454035
2023-11-07 12:18:20.448,952,235944,222232,-10351,-3.169217425,-9740,-2.9821445
2023-11-07 12:18:20.448,953,235956,222232,-10573,-3.237188275,-9868,-3.0213349
2023-11-07 12:18:20.448,954,235906,222196,-10482,-3.20932635,-9988,-3.0580759
2023-11-07 12:18:20.481,955,235835,222170,-10194,-3.12114795,-10089,-3.088999575
2023-11-07 12:18:20.481,956,235752,222131,-9916,-3.0360313,-10177,-3.115942975
2023-11-07 12:18:20.481,957,235648,222094,-9850,-3.01582375,-10262,-3.14196785
2023-11-07 12:18:20.481,958,235520,222026,-9575,-2.931625625,-10348,-3.1682989
2023-11-07 12:18:20.481,959,235355,221959,-9367,-2.867941225,-10423,-3.191262025
2023-11-07 12:18:20.511,960,235157,221870,-9115,-2.790785125,-10467,-3.204733725
2023-11-07 12:18:20.511,961,235013,221804,-8828,-2.7029129,-10480,-3.208714
2023-11-07 12:18:20.511,962,234849,221739,-8791,-2.691584425,-10469,-3.205346075
2023-11-07 12:18:20.511,963,234715,221680,-8673,-2.655455775,-10439,-3.196160825
2023-11-07 12:18:20.511,964,234593,221624,-8516,-2.6073863,-10398,-3.18360765
2023-11-07 12:18:20.511,965,234452,221586,-8409,-2.574625575,-10361,-3.172279175
2023-11-07 12:18:20.511,966,234340,221530,-8291,-2.538496925,-10333,-3.163706275
2023-11-07 12:18:20.543,967,234276,221492,-8174,-2.50267445,-10311,-3.156970425
2023-11-07 12:18:20.543,968,234177,221467,-8013,-2.453380275,-10289,-3.150234575
2023-11-07 12:18:20.543,969,234127,221427,-7867,-2.408678725,-10267,-3.143498725
2023-11-07 12:18:20.543,970,234086,221440,-7579,-2.320500325,-10256,-3.1401308
2023-11-07 12:18:20.543,971,234066,221433,-7396,-2.2644703,-10258,-3.14074315
2023-11-07 12:18:20.543,972,234034,221408,-7314,-2.23936395,-10267,-3.143498725
2023-11-07 12:18:20.575,973,234060,221415,-7342,-2.24793685,-10278,-3.14686665
2023-11-07 12:18:20.575,974,234053,221419,-7486,-2.29202605,-10286,-3.14931605
2023-11-07 12:18:20.575,975,234061,221417,-7431,-2.275186425,-10278,-3.14686665
2023-11-07 12:18:20.575,976,234086,221425,-7119,-2.179659825,-10238,-3.13461965
2023-11-07 12:18:20.575,977,234112,221431,-7136,-2.1848648,-10158,-3.11012565
2023-11-07 12:18:20.608,978,234142,221449,-7422,-2.27243085,-10040,-3.073997
2023-11-07 12:18:20.608,979,234175,221445,-7712,-2.3612216,-9899,-3.030826325
2023-11-07 12:18:20.608,980,234210,221453,-7643,-2.340095525,-9745,-2.983675375
2023-11-07 12:18:20.608,981,234233,221453,-7692,-2.3550981,-9582,-2.93376885
2023-11-07 12:18:20.608,982,234290,221484,-7796,-2.3869403,-9411,-2.881412925
2023-11-07 12:18:20.608,983,234340,221508,-7932,-2.4285801,-9235,-2.827526125
2023-11-07 12:18:20.608,984,234375,221520,-8126,-2.48797805,-9059,-2.773639325
2023-11-07 12:18:20.636,985,234439,221532,-7986,-2.44511355,-8882,-2.71944635
2023-11-07 12:18:20.636,986,234473,221567,-7965,-2.438683875,-8709,-2.666478075
2023-11-07 12:18:20.636,987,234544,221587,-7738,-2.36918215,-8545,-2.616265375
2023-11-07 12:18:20.636,988,234582,221611,-7808,-2.3906144,-8391,-2.569114425
2023-11-07 12:18:20.636,989,234638,221624,-7403,-2.266613525,-8250,-2.52594375
2023-11-07 12:18:20.636,990,234683,221638,-6855,-2.098829625,-8114,-2.48430395
2023-11-07 12:18:20.668,991,234719,221635,-6701,-2.051678675,-7986,-2.44511355
2023-11-07 12:18:20.668,992,234746,221661,-6515,-1.994730125,-7864,-2.4077602
2023-11-07 12:18:20.668,993,234802,221687,-6211,-1.901652925,-7747,-2.371937725
2023-11-07 12:18:20.668,994,234839,221680,-6243,-1.911450525,-7640,-2.339177
2023-11-07 12:18:20.668,995,234868,221696,-6431,-1.969011425,-7556,-2.3134583
2023-11-07 12:18:20.668,996,234902,221711,-6683,-2.046167525,-7498,-2.29570015
2023-11-07 12:18:20.668,997,234935,221716,-6856,-2.0991358,-7458,-2.28345315
2023-11-07 12:18:20.668,998,234958,221724,-6777,-2.074947975,-7437,-2.277023475
2023-11-07 12:18:20.700,999,234991,221745,-6557,-2.007589475,-7440,-2.277942
2023-11-07 12:18:20.700,1000,235035,221743,-6780,-2.0758665,-7472,-2.2877396
2023-11-07 12:18:20.700,1001,235070,221769,-6987,-2.139244725,-7529,-2.305191575
2023-11-07 12:18:20.700,1002,235110,221777,-7063,-2.162514025,-7595,-2.325399125
2023-11-07 12:18:20.700,1003,235131,221772,-7112,-2.1775166,-7659,-2.344994325
2023-11-07 12:18:20.700,1004,235158,221792,-7329,-2.243956575,-7719,-2.363364825
2023-11-07 12:18:20.700,1005,235219,221795,-7425,-2.273349375,-7772,-2.3795921
2023-11-07 12:18:20.731,1006,235219,221801,-7782,-2.38265385,-7799,-2.387858825
2023-11-07 12:18:20.731,1007,235259,221806,-7928,-2.4273554,-7787,-2.384184725
2023-11-07 12:18:20.731,1008,235279,221823,-8151,-2.495632425,-7742,-2.37040685
2023-11-07 12:18:20.731,1009,235324,221828,-8484,-2.5975887,-7667,-2.347443725
2023-11-07 12:18:20.731,1010,235349,221842,-8588,-2.6294309,-7558,-2.31407065
2023-11-07 12:18:20.761,1011,235358,221866,-8918,-2.73046865,-7416,-2.2705938
2023-11-07 12:18:20.761,1012,235385,221866,-9009,-2.758330575,-7257,-2.221911975
2023-11-07 12:18:20.761,1013,235382,221872,-8873,-2.716690775,-7102,-2.17445485
2023-11-07 12:18:20.794,1014,235379,221857,-9399,-2.877738825,-6970,-2.13403975
2023-11-07 12:18:20.794,1015,235373,221867,-9692,-2.9674481,-6859,-2.100054325
2023-11-07 12:18:20.794,1016,235361,221849,-9994,-3.05991295,-6762,-2.07035535
2023-11-07 12:18:20.794,1017,235359,221839,-10191,-3.120229425,-6686,-2.04708605
2023-11-07 12:18:20.794,1018,235325,221838,-10556,-3.2319833,-6644,-2.0342267
2023-11-07 12:18:20.794,1019,235324,221806,-10511,-3.218205425,-6634,-2.03116495
2023-11-07 12:18:20.823,1020,235264,221788,-10719,-3.281889825,-6655,-2.037594625
2023-11-07 12:18:20.823,1021,235235,221774,-11171,-3.420280925,-6712,-2.0550466
2023-11-07 12:18:20.823,1022,235174,221774,-11374,-3.48243445,-6804,-2.0832147
2023-11-07 12:18:20.823,1023,235146,221728,-11483,-3.515807525,-6921,-2.119037175
2023-11-07 12:18:20.823,1024,235106,221696,-11712,-3.5859216,-7049,-2.158227575
2023-11-07 12:18:20.823,1025,235057,221694,-11743,-3.595413025,-7178,-2.19772415
2023-11-07 12:18:20.855,1026,235026,221670,-11717,-3.587452475,-7314,-2.23936395
2023-11-07 12:18:20.855,1027,234994,221645,-11954,-3.66001595,-7463,-2.284984025
2023-11-07 12:18:20.855,1028,234952,221627,-11997,-3.673181475,-7629,-2.335809075
2023-11-07 12:18:20.855,1029,234932,221619,-12033,-3.684203775,-7807,-2.390308225
2023-11-07 12:18:20.855,1030,234909,221602,-12297,-3.765033975,-7993,-2.447256775
2023-11-07 12:18:20.855,1031,234898,221613,-12539,-3.839128325,-8193,-2.508491775
2023-11-07 12:18:20.855,1032,234916,221598,-12841,-3.931593175,-8405,-2.573400875
2023-11-07 12:18:20.889,1033,234885,221601,-12622,-3.86454085,-8621,-2.639534675
2023-11-07 12:18:20.889,1034,234894,221607,-13131,-4.020383925,-8837,-2.705668475
2023-11-07 12:18:20.889,1035,234909,221617,-12997,-3.979356475,-9055,-2.772414625
2023-11-07 12:18:20.889,1036,234923,221606,-12810,-3.92210175,-9278,-2.84069165
2023-11-07 12:18:20.889,1037,234923,221622,-12923,-3.956699525,-9504,-2.9098872
2023-11-07 12:18:20.889,1038,234962,221622,-12464,-3.8161652,-9736,-2.9809198
2023-11-07 12:18:20.889,1039,234962,221642,-11734,-3.59265745,-9966,-3.05134005
2023-11-07 12:18:20.917,1040,234996,221635,-11604,-3.5528547,-10191,-3.120229425
2023-11-07 12:18:20.917,1041,235016,221641,-11705,-3.583778375,-10415,-3.188812625
2023-11-07 12:18:20.917,1042,235039,221659,-11826,-3.62082555,-10637,-3.256783475
2023-11-07 12:18:20.917,1043,235077,221660,-11701,-3.582553675,-10850,-3.32199875
2023-11-07 12:18:20.917,1044,235097,221700,-11568,-3.5418324,-11055,-3.384764625
2023-11-07 12:18:20.949,1045,235152,221694,-11843,-3.626030525,-11245,-3.442937875
2023-11-07 12:18:20.949,1046,235171,221717,-12056,-3.6912458,-11413,-3.494375275
2023-11-07 12:18:20.949,1047,235214,221720,-12098,-3.70410515,-11563,-3.540301525
2023-11-07 12:18:20.949,1048,235228,221746,-12118,-3.71022865,-11708,-3.5846969
2023-11-07 12:18:20.949,1049,235259,221749,-12233,-3.745438775,-11849,-3.627867575
2023-11-07 12:18:20.949,1050,235298,221756,-12654,-3.87433845,-11988,-3.6704259
2023-11-07 12:18:20.949,1051,235331,221759,-13129,-4.019771575,-12133,-3.714821275
2023-11-07 12:18:20.980,1052,235354,221764,-13411,-4.106112925,-12274,-3.75799195
2023-11-07 12:18:20.980,1053,235366,221778,-13424,-4.1100932,-12399,-3.796263825
2023-11-07 12:18:20.980,1054,235399,221795,-13239,-4.053450825,-12505,-3.828718375
2023-11-07 12:18:20.980,1055,235423,221790,-13061,-3.998951675,-12580,-3.8516815
2023-11-07 12:18:20.980,1056,235434,221810,-12869,-3.940166075,-12614,-3.86209145
2023-11-07 12:18:20.980,1057,235475,221808,-12254,-3.75186845,-12614,-3.86209145
2023-11-07 12:18:21.013,1058,235496,221831,-12451,-3.812184925,-12590,-3.85474325
2023-11-07 12:18:21.013,1059,235527,221847,-12615,-3.862397625,-12540,-3.8394345
2023-11-07 12:18:21.013,1060,235552,221842,-12799,-3.918733825,-12461,-3.815246675
2023-11-07 12:18:21.013,1061,235560,221838,-12899,-3.949351325,-12359,-3.784016825
2023-11-07 12:18:21.013,1062,235561,221839,-13333,-4.082231275,-12246,-3.74941905
2023-11-07 12:18:21.013,1063,235595,221845,-13501,-4.133668675,-12141,-3.717270675
2023-11-07 12:18:21.013,1064,235611,221860,-13558,-4.15112065,-12054,-3.69063345
2023-11-07 12:18:21.013,1065,235615,221859,-13862,-4.24419785,-11980,-3.6679765
2023-11-07 12:18:21.045,1066,235607,221858,-13891,-4.253076925,-11931,-3.652973925
2023-11-07 12:18:21.045,1067,235647,221865,-13922,-4.26256835,-11931,-3.652973925
2023-11-07 12:18:21.045,1068,235672,221867,-13961,-4.274509175,-11989,-3.670732075
2023-11-07 12:18:21.045,1069,235649,221879,-13813,-4.229195275,-12097,-3.703798975
2023-11-07 12:18:21.045,1070,235690,221869,-13931,-4.265323925,-12237,-3.746663475
2023-11-07 12:18:21.045,1071,235685,221863,-14100,-4.3170675,-12396,-3.7953453
2023-11-07 12:18:21.045,1072,235706,221883,-14185,-4.343092375,-12558,-3.84494565
2023-11-07 12:18:21.073,1073,235731,221886,-14350,-4.39361125,-12696,-3.8871978
2023-11-07 12:18:21.073,1074,235724,221869,-14505,-4.441068375,-12787,-3.915059725
2023-11-07 12:18:21.073,1075,235732,221882,-14646,-4.48423905,-12837,-3.930368475
2023-11-07 12:18:21.073,1076,235746,221883,-14794,-4.52955295,-12870,-3.94047225
2023-11-07 12:18:21.073,1077,235760,221892,-14856,-4.5485358,-12898,-3.94904515
2023-11-07 12:18:21.073,1078,235759,221892,-14664,-4.4897502,-12924,-3.9570057
2023-11-07 12:18:21.105,1079,235773,221889,-14790,-4.52832825,-12949,-3.964660075
2023-11-07 12:18:21.105,1080,235776,221890,-15034,-4.60303495,-12972,-3.9717021
2023-11-07 12:18:21.105,1081,235804,221907,-14908,-4.5644569,-12996,-3.9790503
2023-11-07 12:18:21.105,1082,235797,221904,-14827,-4.539656725,-13028,-3.9888479
2023-11-07 12:18:21.105,1083,235807,221922,-14880,-4.555884,-13073,-4.002625775
2023-11-07 12:18:21.105,1084,235822,221911,-14946,-4.57609155,-13136,-4.0219148
2023-11-07 12:18:21.105,1085,235844,221924,-15078,-4.61650665,-13232,-4.0513076
2023-11-07 12:18:21.105,1086,235838,221900,-15093,-4.621099275,-13353,-4.088354775
2023-11-07 12:18:21.136,1087,235858,221921,-15296,-4.6832528,-13489,-4.129994575
2023-11-07 12:18:21.136,1088,235840,221905,-15219,-4.659677325,-13630,-4.17316525
2023-11-07 12:18:21.136,1089,235859,221920,-15359,-4.702541825,-13762,-4.21358035
2023-11-07 12:18:21.136,1090,235869,221907,-15372,-4.7065221,-13875,-4.248178125
2023-11-07 12:18:21.136,1091,235863,221919,-15424,-4.7224432,-13969,-4.276958575
2023-11-07 12:18:21.136,1092,235887,221916,-15377,-4.708052975,-14055,-4.303289625
2023-11-07 12:18:21.169,1093,235884,221912,-15485,-4.741119875,-14141,-4.329620675
2023-11-07 12:18:21.169,1094,235881,221915,-15584,-4.7714312,-14231,-4.357176425
2023-11-07 12:18:21.169,1095,235876,221921,-15712,-4.8106216,-14318,-4.38381365
2023-11-07 12:18:21.169,1096,235870,221899,-15538,-4.75734715,-14403,-4.409838525
2023-11-07 12:18:21.169,1097,235874,221905,-15567,-4.766226225,-14490,-4.43647575
2023-11-07 12:18:21.200,1098,235834,221879,-15690,-4.80388575,-14573,-4.461888275
2023-11-07 12:18:21.200,1099,235806,221873,-15842,-4.85042435,-14648,-4.4848514
2023-11-07 12:18:21.200,1100,235741,221825,-15983,-4.893595025,-14720,-4.506896
2023-11-07 12:18:21.200,1101,235675,221792,-15829,-4.846444075,-14790,-4.52832825
2023-11-07 12:18:21.200,1102,235558,221750,-15841,-4.850118175,-14856,-4.5485358
2023-11-07 12:18:21.200,1103,235479,221712,-15665,-4.796231375,-14911,-4.565375425
2023-11-07 12:18:21.231,1104,235324,221644,-15493,-4.743569275,-14953,-4.578234775
2023-11-07 12:18:21.231,1105,235156,221565,-15377,-4.708052975,-14986,-4.58833855
2023-11-07 12:18:21.231,1106,234995,221498,-15221,-4.660289675,-15025,-4.600279375
2023-11-07 12:18:21.231,1107,234839,221452,-15222,-4.66059585,-15073,-4.614975775
2023-11-07 12:18:21.231,1108,234718,221382,-15175,-4.646205625,-15123,-4.630284525
2023-11-07 12:18:21.231,1109,234596,221349,-15049,-4.607627575,-15175,-4.646205625
2023-11-07 12:18:21.262,1110,234489,221313,-14985,-4.588032375,-15228,-4.6624329
2023-11-07 12:18:21.262,1111,234403,221275,-14748,-4.5154689,-15284,-4.6795787
2023-11-07 12:18:21.262,1112,234328,221235,-14775,-4.523735625,-15339,-4.696418325
2023-11-07 12:18:21.262,1113,234260,221209,-14573,-4.461888275,-15391,-4.712339425
2023-11-07 12:18:21.262,1114,234212,221196,-14249,-4.362687575,-15441,-4.727648175
2023-11-07 12:18:21.262,1115,234174,221176,-14237,-4.359013475,-15491,-4.742956925
2023-11-07 12:18:21.262,1116,234163,221159,-14021,-4.292879675,-15544,-4.7591842
2023-11-07 12:18:21.262,1117,234166,221172,-13810,-4.22827675,-15596,-4.7751053
2023-11-07 12:18:21.296,1118,234153,221175,-13486,-4.12907605,-15641,-4.788883175
2023-11-07 12:18:21.296,1119,234178,221176,-13419,-4.108562325,-15678,-4.80021165
2023-11-07 12:18:21.296,1120,234175,221179,-13418,-4.10825615,-15711,-4.810315425
2023-11-07 12:18:21.296,1121,234205,221187,-13254,-4.05804345,-15734,-4.81735745
2023-11-07 12:18:21.296,1122,234236,221197,-13179,-4.035080325,-15743,-4.820113025
2023-11-07 12:18:21.296,1123,234279,221210,-12940,-3.9619045,-15730,-4.81613275
2023-11-07 12:18:21.296,1124,234312,221227,-12791,-3.916284425,-15702,-4.80755985
2023-11-07 12:18:21.324,1125,234359,221260,-12423,-3.803612025,-15661,-4.795006675
2023-11-07 12:18:21.324,1126,234408,221258,-12511,-3.830555425,-15608,-4.7787794
2023-11-07 12:18:21.324,1127,234459,221298,-12423,-3.803612025,-15541,-4.758265675
2023-11-07 12:18:21.324,1128,234521,221314,-12075,-3.697063125,-15461,-4.733771675
2023-11-07 12:18:21.324,1129,234557,221318,-12190,-3.73227325,-15373,-4.706828275
2023-11-07 12:18:21.356,1130,234608,221356,-12051,-3.689714925,-15273,-4.676210775
2023-11-07 12:18:21.356,1131,234648,221365,-11861,-3.631541675,-15158,-4.64100065
2023-11-07 12:18:21.356,1132,234695,221391,-11599,-3.551323825,-15032,-4.6024226
2023-11-07 12:18:21.356,1133,234747,221404,-11629,-3.560509075,-14902,-4.56261985
2023-11-07 12:18:21.356,1134,234808,221410,-11485,-3.516419875,-14771,-4.522510925
2023-11-07 12:18:21.356,1135,234849,221436,-11475,-3.513358125,-14635,-4.480871125
2023-11-07 12:18:21.356,1136,234922,221454,-11247,-3.443550225,-14493,-4.437394275
2023-11-07 12:18:21.386,1137,234941,221468,-10991,-3.365169425,-14346,-4.39238655
2023-11-07 12:18:21.386,1138,234991,221482,-10891,-3.334551925,-14193,-4.345541775
2023-11-07 12:18:21.386,1139,235034,221499,-10844,-3.3201617,-14035,-4.297166125
2023-11-07 12:18:21.386,1140,235073,221528,-10745,-3.289850375,-13871,-4.246953425
2023-11-07 12:18:21.386,1141,235124,221549,-10641,-3.258008175,-13707,-4.196740725
2023-11-07 12:18:21.386,1142,235150,221552,-10567,-3.235351225,-13546,-4.14744655
2023-11-07 12:18:21.419,1143,235203,221567,-10594,-3.24361795,-13391,-4.099989425
2023-11-07 12:18:21.419,1144,235245,221581,-10323,-3.160644525,-13238,-4.05314465
2023-11-07 12:18:21.419,1145,235295,221599,-10182,-3.11747385,-13085,-4.006299875
2023-11-07 12:18:21.419,1146,235322,221601,-10189,-3.119617075,-12938,-3.96129215
2023-11-07 12:18:21.419,1147,235354,221624,-10146,-3.10645155,-12800,-3.91904
2023-11-07 12:18:21.450,1148,235403,221640,-9951,-3.046747425,-12665,-3.877706375
2023-11-07 12:18:21.450,1149,235422,221648,-9836,-3.0115373,-12529,-3.836066575
2023-11-07 12:18:21.450,1150,235454,221665,-9611,-2.942647925,-12395,-3.795039125
2023-11-07 12:18:21.450,1151,235482,221670,-9500,-2.9086625,-12261,-3.754011675
2023-11-07 12:18:21.450,1152,235512,221691,-9133,-2.796296275,-12131,-3.714208925
2023-11-07 12:18:21.450,1153,235512,221672,-9030,-2.76476025,-12002,-3.67471235
2023-11-07 12:18:21.450,1154,235523,221675,-8991,-2.752819425,-11870,-3.63429725
2023-11-07 12:18:21.479,1155,235534,221667,-9157,-2.803644475,-11740,-3.5944945
2023-11-07 12:18:21.479,1156,235523,221682,-8907,-2.727100725,-11617,-3.556834975
2023-11-07 12:18:21.479,1157,235536,221669,-8756,-2.6808683,-11498,-3.52040015
2023-11-07 12:18:21.479,1158,235524,221659,-8770,-2.68515475,-11375,-3.482740625
2023-11-07 12:18:21.479,1159,235503,221657,-8619,-2.638922325,-11251,-3.444774925
2023-11-07 12:18:21.479,1160,235468,221654,-8467,-2.592383725,-11131,-3.408033925
2023-11-07 12:18:21.514,1161,235466,221630,-8246,-2.52471905,-11015,-3.372517625
2023-11-07 12:18:21.514,1162,235452,221620,-8137,-2.491345975,-10900,-3.3373075
2023-11-07 12:18:21.514,1163,235431,221592,-7949,-2.433785075,-10790,-3.30362825
2023-11-07 12:18:21.514,1164,235402,221587,-8026,-2.45736055,-10686,-3.27178605
2023-11-07 12:18:21.514,1165,235383,221587,-8098,-2.47940515,-10585,-3.240862375
2023-11-07 12:18:21.514,1166,235349,221552,-8004,-2.4506247,-10483,-3.209632525
2023-11-07 12:18:21.514,1167,235319,221556,-7654,-2.34346345,-10375,-3.176565625
2023-11-07 12:18:21.514,1168,235302,221559,-7647,-2.341320225,-10263,-3.142274025
2023-11-07 12:18:21.542,1169,235238,221521,-7524,-2.3036607,-10146,-3.10645155
2023-11-07 12:18:21.542,1170,235221,221508,-7091,-2.171086925,-10021,-3.068179675
2023-11-07 12:18:21.542,1171,235219,221497,-7000,-2.143225,-9890,-3.02807075
2023-11-07 12:18:21.542,1172,235174,221483,-6976,-2.1358768,-9759,-2.987961825
2023-11-07 12:18:21.542,1173,235149,221472,-6702,-2.05198485,-9630,-2.94846525
2023-11-07 12:18:21.542,1174,235153,221467,-6123,-1.874709525,-9499,-2.908356325
2023-11-07 12:18:21.542,1175,235121,221464,-5858,-1.79357315,-9371,-2.869165925
2023-11-07 12:18:21.576,1176,235121,221461,-5450,-1.66865375,-9251,-2.832424925
2023-11-07 12:18:21.576,1177,235114,221451,-5317,-1.627932475,-9134,-2.79660245
2023-11-07 12:18:21.576,1178,235112,221460,-5344,-1.6361992,-9015,-2.760167625
2023-11-07 12:18:21.576,1179,235119,221458,-4967,-1.520771225,-8892,-2.7225081
2023-11-07 12:18:21.576,1180,235122,221452,-4790,-1.46657825,-8769,-2.684848575
2023-11-07 12:18:21.604,1181,235142,221461,-4644,-1.4218767,-8657,-2.650556975
2023-11-07 12:18:21.604,1182,235154,221467,-4603,-1.409323525,-8557,-2.619939475
2023-11-07 12:18:21.604,1183,235175,221477,-4102,-1.25592985,-8462,-2.59085285
2023-11-07 12:18:21.635,1184,235195,221461,-3704,-1.1340722,-8366,-2.56146005
2023-11-07 12:18:21.635,1185,235211,221479,-3552,-1.0875336,-8268,-2.5314549
2023-11-07 12:18:21.635,1186,235234,221489,-3343,-1.023543025,-8163,-2.499306525
2023-11-07 12:18:21.635,1187,235257,221499,-3543,-1.084778025,-8043,-2.462565525
2023-11-07 12:18:21.635,1188,235273,221502,-3181,-0.973942675,-7913,-2.422762775
2023-11-07 12:18:21.635,1189,235313,221515,-3174,-0.97179945,-7782,-2.38265385
2023-11-07 12:18:21.667,1190,235334,221519,-3057,-0.935976975,-7649,-2.341932575
2023-11-07 12:18:21.667,1191,235361,221539,-2978,-0.91178915,-7506,-2.29814955
2023-11-07 12:18:21.667,1192,235392,221533,-3182,-0.97424885,-7342,-2.24793685
2023-11-07 12:18:21.667,1193,235412,221536,-3240,-0.992007,-7149,-2.188845075
2023-11-07 12:18:21.667,1194,235419,221535,-3809,-1.166220575,-6932,-2.1224051
2023-11-07 12:18:21.667,1195,235444,221557,-3748,-1.1475439,-6703,-2.052291025
2023-11-07 12:18:21.700,1196,235467,221565,-3686,-1.12856105,-6460,-1.9778905
2023-11-07 12:18:21.700,1197,235490,221569,-3319,-1.016194825,-6209,-1.901040575
2023-11-07 12:18:21.700,1198,235491,221567,-2746,-0.84075655,-5965,-1.826333875
2023-11-07 12:18:21.700,1199,235497,221574,-2047,-0.626740225,-5734,-1.75560745
2023-11-07 12:18:21.700,1200,235534,221579,-1812,-0.5547891,-5501,-1.684268675
2023-11-07 12:18:21.700,1201,235538,221592,-1925,-0.589386875,-5258,-1.60986815
2023-11-07 12:18:21.700,1202,235565,221594,-2046,-0.62643405,-5011,-1.534242925
2023-11-07 12:18:21.731,1203,235588,221610,-1997,-0.611431475,-4769,-1.460148575
2023-11-07 12:18:21.731,1204,235594,221603,-2050,-0.62765875,-4542,-1.39064685
2023-11-07 12:18:21.731,1205,235613,221614,-2356,-0.7213483,-4331,-1.326043925
2023-11-07 12:18:21.731,1206,235633,221613,-2331,-0.713693925,-4134,-1.26572745
2023-11-07 12:18:21.731,1207,235622,221609,-2189,-0.670217075,-3954,-1.21061595
2023-11-07 12:18:21.731,1208,235667,221622,-1926,-0.58969305,-3792,-1.1610156
2023-11-07 12:18:21.731,1209,235682,221621,-2052,-0.6282711,-3641,-1.114783175
2023-11-07 12:18:21.764,1210,235680,221638,-2147,-0.657357725,-3503,-1.072531025
2023-11-07 12:18:21.764,1211,235680,221626,-2043,-0.625515525,-3399,-1.040688825
2023-11-07 12:18:21.764,1212,235686,221624,-2139,-0.654908325,-3340,-1.0226245
2023-11-07 12:18:21.764,1213,235705,221639,-1861,-0.569791675,-3322,-1.01711335
2023-11-07 12:18:21.764,1214,235721,221633,-1977,-0.605307975,-3325,-1.018031875
2023-11-07 12:18:21.794,1215,235719,221638,-2175,-0.665930625,-3319,-1.016194825
2023-11-07 12:18:21.794,1216,235734,221638,-2285,-0.699609875,-3281,-1.004560175
2023-11-07 12:18:21.794,1217,235762,221640,-2243,-0.686750525,-3204,-0.9809847
2023-11-07 12:18:21.794,1218,235737,221644,-2191,-0.670829425,-3100,-0.9491425
2023-11-07 12:18:21.794,1219,235756,221650,-2053,-0.628577275,-2982,-0.91301385
2023-11-07 12:18:21.794,1220,235785,221639,-2194,-0.67174795,-2859,-0.875354325
2023-11-07 12:18:21.794,1221,235793,221638,-2227,-0.681851725,-2740,-0.8389195
2023-11-07 12:18:21.825,1222,235811,221655,-2367,-0.724716225,-2627,-0.804321725
2023-11-07 12:18:21.825,1223,235801,221641,-2331,-0.713693925,-2518,-0.77094865
2023-11-07 12:18:21.825,1224,235786,221640,-2563,-0.784726525,-2403,-0.735738525
2023-11-07 12:18:21.825,1225,235800,221653,-2778,-0.85055415,-2278,-0.69746665
2023-11-07 12:18:21.825,1226,235819,221650,-2763,-0.845961525,-2165,-0.662868875
2023-11-07 12:18:21.825,1227,235832,221650,-2826,-0.86525055,-2088,-0.6392934
2023-11-07 12:18:21.854,1228,235829,221652,-3083,-0.943937525,-2056,-0.6294958
2023-11-07 12:18:21.854,1229,235827,221653,-3221,-0.986189675,-2059,-0.630414325
2023-11-07 12:18:21.854,1230,235819,221650,-3126,-0.95710305,-2079,-0.636537825
2023-11-07 12:18:21.854,1231,235847,221654,-3131,-0.958633925,-2105,-0.644498375
2023-11-07 12:18:21.854,1232,235865,221655,-3328,-1.0189504,-2126,-0.65092805
2023-11-07 12:18:21.854,1233,235868,221653,-3247,-0.994150225,-2129,-0.651846575
2023-11-07 12:18:21.854,1234,235888,221664,-3083,-0.943937525,-2114,-0.64725395
2023-11-07 12:18:21.854,1235,235884,221646,-3036,-0.9295473,-2096,-0.6417428
2023-11-07 12:18:21.886,1236,235875,221666,-3089,-0.945774575,-2090,-0.63990575
2023-11-07 12:18:21.886,1237,235892,221660,-3232,-0.9895576,-2102,-0.64357985
2023-11-07 12:18:21.886,1238,235889,221672,-3358,-1.02813565,-2123,-0.650009525
2023-11-07 12:18:21.886,1239,235876,221652,-3323,-1.017419525,-2148,-0.6576639
2023-11-07 12:18:21.886,1240,235826,221634,-3139,-0.961083325,-2170,-0.66439975
2023-11-07 12:18:21.886,1241,235776,221612,-3281,-1.004560175,-2198,-0.67297265
2023-11-07 12:18:21.886,1242,235719,221583,-3459,-1.059059325,-2241,-0.686138175
2023-11-07 12:18:21.918,1243,235616,221543,-3286,-1.00609105,-2295,-0.702671625
2023-11-07 12:18:21.918,1244,235516,221488,-3422,-1.04773085,-2357,-0.721654475
2023-11-07 12:18:21.918,1245,235413,221436,-3340,-1.0226245,-2432,-0.7446176
2023-11-07 12:18:21.918,1246,235282,221374,-3404,-1.0422197,-2517,-0.770642475
2023-11-07 12:18:21.918,1247,235077,221293,-3372,-1.0324221,-2603,-0.796973525
2023-11-07 12:18:21.918,1248,234910,221238,-3271,-1.001498425,-2687,-0.822692225
2023-11-07 12:18:21.952,1249,234780,221168,-3379,-1.034565325,-2773,-0.849023275
2023-11-07 12:18:21.952,1250,234628,221097,-3462,-1.05997785,-2861,-0.875966675
2023-11-07 12:18:21.952,1251,234505,221052,-3365,-1.030278875,-2947,-0.902297725
2023-11-07 12:18:21.952,1252,234395,221003,-3565,-1.091513875,-3021,-0.924954675
2023-11-07 12:18:21.952,1253,234309,220966,-3639,-1.114170825,-3077,-0.942100475
2023-11-07 12:18:21.952,1254,234243,220942,-3602,-1.10284235,-3119,-0.954959825
2023-11-07 12:18:21.952,1255,234169,220923,-3396,-1.0397703,-3152,-0.9650636
2023-11-07 12:18:21.952,1256,234149,220905,-3364,-1.0299727,-3175,-0.972105625
2023-11-07 12:18:21.979,1257,234132,220914,-3567,-1.092126225,-3188,-0.9760859
2023-11-07 12:18:21.979,1258,234103,220889,-3504,-1.0728372,-3204,-0.9809847
2023-11-07 12:18:21.979,1259,234110,220902,-3595,-1.100699125,-3225,-0.987414375
2023-11-07 12:18:21.979,1260,234133,220894,-3595,-1.100699125,-3242,-0.99261935
2023-11-07 12:18:21.979,1261,234147,220906,-3550,-1.08692125,-3252,-0.9956811
2023-11-07 12:18:21.979,1262,234169,220937,-3848,-1.1781614,-3262,-0.99874285
2023-11-07 12:18:22.011,1263,234204,220940,-3796,-1.1622403,-3278,-1.00364165
2023-11-07 12:18:22.011,1264,234202,220936,-3696,-1.1316228,-3300,-1.0103775
2023-11-07 12:18:22.011,1265,234256,220954,-3924,-1.2014307,-3322,-1.01711335
2023-11-07 12:18:22.011,1266,234284,220967,-3782,-1.15795385,-3340,-1.0226245
2023-11-07 12:18:22.011,1267,234331,220995,-3929,-1.202961575,-3357,-1.027829475
2023-11-07 12:18:22.044,1268,234385,220999,-4055,-1.241539625,-3371,-1.032115925
2023-11-07 12:18:22.044,1269,234422,221003,-4069,-1.245826075,-3384,-1.0360962
2023-11-07 12:18:22.044,1270,234460,221048,-4110,-1.25837925,-3396,-1.0397703
2023-11-07 12:18:22.044,1271,234520,221057,-4121,-1.261747175,-3412,-1.0446691
2023-11-07 12:18:22.044,1272,234592,221071,-4289,-1.313184575,-3429,-1.049874075
2023-11-07 12:18:22.044,1273,234638,221099,-4274,-1.30859195,-3446,-1.05507905
2023-11-07 12:18:22.074,1274,234675,221114,-4299,-1.316246325,-3461,-1.059671675
2023-11-07 12:18:22.074,1275,234727,221127,-4102,-1.25592985,-3474,-1.06365195
2023-11-07 12:18:22.074,1276,234791,221161,-4260,-1.3043055,-3486,-1.06732605
2023-11-07 12:18:22.074,1277,234831,221189,-4191,-1.283179425,-3496,-1.0703878
2023-11-07 12:18:22.074,1278,234877,221189,-4178,-1.27919915,-3510,-1.07467425
2023-11-07 12:18:22.074,1279,234919,221211,-4243,-1.299100525,-3536,-1.0826348
2023-11-07 12:18:22.107,1280,234958,221219,-4376,-1.3398218,-3568,-1.0924324
2023-11-07 12:18:22.107,1281,234991,221264,-4490,-1.37472575,-3595,-1.100699125
2023-11-07 12:18:22.107,1282,235046,221259,-4073,-1.247050775,-3618,-1.10774115
2023-11-07 12:18:22.107,1283,235075,221275,-4055,-1.241539625,-3643,-1.115395525
2023-11-07 12:18:22.107,1284,235108,221291,-4191,-1.283179425,-3672,-1.1242746
2023-11-07 12:18:22.107,1285,235143,221295,-4225,-1.293589375,-3710,-1.13590925
2023-11-07 12:18:22.107,1286,235191,221321,-4450,-1.36247875,-3756,-1.1499933
2023-11-07 12:18:22.107,1287,235240,221329,-4456,-1.3643158,-3809,-1.166220575
2023-11-07 12:18:22.135,1288,235271,221350,-4792,-1.4671906,-3866,-1.18367255
2023-11-07 12:18:22.135,1289,235312,221349,-4692,-1.4365731,-3924,-1.2014307
2023-11-07 12:18:22.135,1290,235340,221391,-4938,-1.51189215,-3975,-1.217045625
2023-11-07 12:18:22.135,1291,235365,221373,-4933,-1.510361275,-4018,-1.23021115
2023-11-07 12:18:22.135,1292,235378,221397,-5118,-1.56700365,-4058,-1.24245815
2023-11-07 12:18:22.135,1293,235412,221405,-5186,-1.58782355,-4096,-1.2540928
2023-11-07 12:18:22.135,1294,235423,221407,-5342,-1.63558685,-4134,-1.26572745
2023-11-07 12:18:22.168,1295,235452,221427,-5437,-1.664673475,-4167,-1.275831225
2023-11-07 12:18:22.168,1296,235480,221429,-5393,-1.651201775,-4194,-1.28409795
2023-11-07 12:18:22.168,1297,235482,221430,-5529,-1.692841575,-4216,-1.2908338
2023-11-07 12:18:22.168,1298,235495,221436,-5582,-1.70906885,-4238,-1.29756965
2023-11-07 12:18:22.168,1299,235487,221446,-5538,-1.69559715,-4251,-1.301549925
2023-11-07 12:18:22.200,1300,235507,221435,-5572,-1.7060071,-4253,-1.302162275
2023-11-07 12:18:22.200,1301,235481,221435,-5687,-1.741217225,-4250,-1.30124375
2023-11-07 12:18:22.202,1302,235475,221409,-5650,-1.72988875,-4248,-1.3006314
2023-11-07 12:18:22.230,1303,235451,221418,-5649,-1.729582575,-4251,-1.301549925
2023-11-07 12:18:22.230,1304,235459,221419,-5804,-1.7770397,-4261,-1.304611675
2023-11-07 12:18:22.231,1305,235437,221397,-5764,-1.7647927,-4282,-1.31104135
2023-11-07 12:18:22.231,1306,235428,221384,-5900,-1.8064325,-4320,-1.322676
2023-11-07 12:18:22.231,1307,235378,221371,-5918,-1.81194365,-4373,-1.338903275
2023-11-07 12:18:22.231,1308,235373,221356,-5993,-1.834906775,-4436,-1.3581923
2023-11-07 12:18:22.261,1309,235335,221335,-6031,-1.846541425,-4503,-1.378706025
2023-11-07 12:18:22.261,1310,235336,221349,-6121,-1.874097175,-4579,-1.401975325
2023-11-07 12:18:22.261,1311,235296,221310,-6123,-1.874709525,-4668,-1.4292249
2023-11-07 12:18:22.261,1312,235265,221311,-5988,-1.8333759,-4766,-1.45923005
2023-11-07 12:18:22.261,1313,235241,221295,-6252,-1.9142061,-4870,-1.49107225
2023-11-07 12:18:22.261,1314,235215,221290,-6277,-1.921860475,-4980,-1.5247515
2023-11-07 12:18:22.296,1315,235219,221293,-6262,-1.91726785,-5092,-1.5590431
2023-11-07 12:18:22.296,1316,235203,221286,-6194,-1.89644795,-5194,-1.59027295
2023-11-07 12:18:22.296,1317,235199,221277,-6264,-1.9178802,-5281,-1.616910175
2023-11-07 12:18:22.296,1318,235203,221290,-6271,-1.920023425,-5353,-1.638954775
2023-11-07 12:18:22.296,1319,235182,221270,-6304,-1.9301272,-5413,-1.657325275
2023-11-07 12:18:22.296,1320,235192,221266,-6342,-1.94176185,-5467,-1.673858725
2023-11-07 12:18:22.296,1321,235202,221268,-6383,-1.954315025,-5522,-1.69069835
2023-11-07 12:18:22.326,1322,235193,221267,-6194,-1.89644795,-5576,-1.7072318
2023-11-07 12:18:22.326,1323,235201,221271,-6518,-1.99564865,-5626,-1.72254055
2023-11-07 12:18:22.326,1324,235224,221269,-6493,-1.987994275,-5672,-1.7366246
2023-11-07 12:18:22.326,1325,235225,221282,-6590,-2.01769325,-5712,-1.7488716
2023-11-07 12:18:22.326,1326,235227,221279,-6716,-2.0562713,-5749,-1.760200075
2023-11-07 12:18:22.326,1327,235278,221280,-6637,-2.032083475,-5791,-1.773059425
2023-11-07 12:18:22.326,1328,235287,221295,-6692,-2.0489231,-5838,-1.78744965
2023-11-07 12:18:22.354,1329,235309,221309,-6701,-2.051678675,-5885,-1.801839875
2023-11-07 12:18:22.354,1330,235317,221298,-6650,-2.03606375,-5934,-1.81684245
2023-11-07 12:18:22.354,1331,235344,221308,-6561,-2.008814175,-5985,-1.832457375
2023-11-07 12:18:22.354,1332,235374,221317,-6673,-2.043105775,-6031,-1.846541425
2023-11-07 12:18:22.354,1333,235398,221328,-6661,-2.039431675,-6072,-1.8590946
2023-11-07 12:18:22.386,1334,235400,221342,-6551,-2.005752425,-6110,-1.87072925
2023-11-07 12:18:22.386,1335,235422,221329,-7015,-2.147817625,-6146,-1.88175155
2023-11-07 12:18:22.386,1336,235457,221347,-7157,-2.191294475,-6181,-1.892467675
2023-11-07 12:18:22.386,1337,235455,221355,-7734,-2.36795745,-6213,-1.902265275
2023-11-07 12:18:22.386,1338,235472,221355,-8135,-2.490733625,-6239,-1.910225825
2023-11-07 12:18:22.386,1339,235480,221366,-8071,-2.471138425,-6258,-1.91604315
2023-11-07 12:18:22.386,1340,235496,221372,-7646,-2.34101405,-6281,-1.923085175
2023-11-07 12:18:22.416,1341,235514,221373,-7131,-2.183333925,-6307,-1.931045725
2023-11-07 12:18:22.416,1342,235514,221380,-6605,-2.022285875,-6335,-1.939618625
2023-11-07 12:18:22.416,1343,235532,221368,-6043,-1.850215525,-6369,-1.950028575
2023-11-07 12:18:22.416,1344,235553,221372,-6179,-1.891855325,-6407,-1.961663225
2023-11-07 12:18:22.416,1345,235570,221389,-6270,-1.91971725,-6447,-1.973910225
2023-11-07 12:18:22.416,1346,235571,221377,-6237,-1.909613475,-6486,-1.98585105
2023-11-07 12:18:22.449,1347,235591,221382,-6410,-1.96258175,-6522,-1.99687335
2023-11-07 12:18:22.449,1348,235603,221396,-6426,-1.96748055,-6553,-2.006364775
2023-11-07 12:18:22.449,1349,235628,221397,-6517,-1.995342475,-6582,-2.01524385
2023-11-07 12:18:22.449,1350,235643,221393,-6440,-1.971767,-6611,-2.024122925
2023-11-07 12:18:22.481,1351,235677,221400,-6487,-1.986157225,-6636,-2.0317773
2023-11-07 12:18:22.481,1352,235669,221411,-6360,-1.947273,-6664,-2.0403502
2023-11-07 12:18:22.481,1353,235672,221417,-6235,-1.909001125,-6704,-2.0525972
2023-11-07 12:18:22.481,1354,235702,221417,-6280,-1.922779,-6765,-2.071273875
2023-11-07 12:18:22.481,1355,235676,221419,-6442,-1.97237935,-6854,-2.09852345
2023-11-07 12:18:22.481,1356,235669,221417,-6675,-2.043718125,-6964,-2.1322027
2023-11-07 12:18:22.481,1357,235682,221402,-6576,-2.0134068,-7072,-2.1652696
2023-11-07 12:18:22.514,1358,235686,221421,-6581,-2.014937675,-7164,-2.1934377
2023-11-07 12:18:22.514,1359,235691,221405,-6429,-1.968399075,-7223,-2.211502025
2023-11-07 12:18:22.514,1360,235683,221374,-6519,-1.995954825,-7238,-2.21609465
2023-11-07 12:18:22.514,1361,235682,221382,-6291,-1.926146925,-7215,-2.209052625
2023-11-07 12:18:22.514,1362,235691,221381,-6449,-1.974522575,-7168,-2.1946624
2023-11-07 12:18:22.514,1363,235690,221383,-6473,-1.981870775,-7101,-2.174148675
2023-11-07 12:18:22.544,1364,235710,221398,-6385,-1.954927375,-7023,-2.150267025
2023-11-07 12:18:22.544,1365,235716,221379,-6356,-1.9460483,-6934,-2.12301745
2023-11-07 12:18:22.544,1366,235731,221382,-6698,-2.05076015,-6830,-2.09117525
2023-11-07 12:18:22.544,1367,235725,221396,-6601,-2.021061175,-6713,-2.055352775
2023-11-07 12:18:22.544,1368,235741,221392,-6520,-1.996261,-6591,-2.017999425
2023-11-07 12:18:22.576,1369,235751,221395,-6662,-2.03973785,-6475,-1.982483125
2023-11-07 12:18:22.576,1370,235758,221392,-6827,-2.090256725,-6383,-1.954315025
2023-11-07 12:18:22.576,1371,235759,221404,-6521,-1.996567175,-6333,-1.939006275
2023-11-07 12:18:22.576,1372,235742,221395,-6530,-1.99932275,-6330,-1.93808775
2023-11-07 12:18:22.576,1373,235784,221395,-6477,-1.983095475,-6364,-1.9484977
2023-11-07 12:18:22.576,1374,235769,221404,-6870,-2.10342225,-6416,-1.9644188
2023-11-07 12:18:22.576,1375,235799,221404,-6663,-2.040044025,-6459,-1.977584325
2023-11-07 12:18:22.607,1376,235765,221400,-6614,-2.02504145,-6482,-1.98462635
2023-11-07 12:18:22.607,1377,235784,221390,-6704,-2.0525972,-6483,-1.984932525
2023-11-07 12:18:22.607,1378,235779,221380,-6549,-2.005140075,-6471,-1.981258425
2023-11-07 12:18:22.607,1379,235781,221391,-6713,-2.055352775,-6461,-1.978196675
2023-11-07 12:18:22.607,1380,235772,221381,-6752,-2.0672936,-6461,-1.978196675
2023-11-07 12:18:22.607,1381,235765,221366,-6878,-2.10587165,-6470,-1.98095225
2023-11-07 12:18:22.639,1382,235744,221361,-6843,-2.095155525,-6482,-1.98462635
2023-11-07 12:18:22.639,1383,235710,221329,-6846,-2.09607405,-6493,-1.987994275
2023-11-07 12:18:22.639,1384,235628,221315,-6851,-2.097604925,-6499,-1.989831325
2023-11-07 12:18:22.639,1385,235547,221275,-6499,-1.989831325,-6501,-1.990443675
2023-11-07 12:18:22.639,1386,235454,221228,-6406,-1.96135705,-6506,-1.99197455
2023-11-07 12:18:22.639,1387,235326,221183,-6292,-1.9264531,-6520,-1.996261
2023-11-07 12:18:22.639,1388,235182,221112,-6333,-1.939006275,-6534,-2.00054745
2023-11-07 12:18:22.669,1389,235020,221039,-6450,-1.97482875,-6546,-2.00422155
2023-11-07 12:18:22.669,1390,234821,220959,-6283,-1.923697525,-6559,-2.008201825
2023-11-07 12:18:22.669,1391,234658,220895,-6272,-1.9203296,-6578,-2.01401915
2023-11-07 12:18:22.669,1392,234544,220848,-6240,-1.910532,-6604,-2.0219797
2023-11-07 12:18:22.669,1393,234397,220792,-6225,-1.905939375,-6627,-2.029021725
2023-11-07 12:18:22.669,1394,234278,220743,-5888,-1.8027584,-6643,-2.033920525
2023-11-07 12:18:22.669,1395,234205,220698,-5949,-1.821435075,-6651,-2.036369925
2023-11-07 12:18:22.701,1396,234124,220666,-5996,-1.8358253,-6660,-2.0391255
2023-11-07 12:18:22.701,1397,234053,220637,-5950,-1.82174125,-6669,-2.041881075
2023-11-07 12:18:22.701,1398,233994,220615,-5782,-1.77030385,-6677,-2.044330475
2023-11-07 12:18:22.701,1399,233952,220592,-6078,-1.86093165,-6689,-2.048004575
2023-11-07 12:18:22.701,1400,233929,220596,-6047,-1.851440225,-6708,-2.0538219
2023-11-07 12:18:22.701,1401,233918,220580,-5912,-1.8101066,-6729,-2.060251575
2023-11-07 12:18:22.730,1402,233897,220568,-6516,-1.9950363,-6740,-2.0636195
2023-11-07 12:18:22.730,1403,233899,220562,-7638,-2.33856465,-6737,-2.062700975
2023-11-07 12:18:22.730,1404,233937,220586,-7917,-2.423987475,-6723,-2.058414525
2023-11-07 12:18:22.730,1405,233928,220591,-7781,-2.382347675,-6699,-2.051066325
2023-11-07 12:18:22.730,1406,233972,220590,-7228,-2.2130329,-6668,-2.0415749
2023-11-07 12:18:22.730,1407,233984,220596,-6697,-2.050453975,-6630,-2.02994025
2023-11-07 12:18:22.730,1408,234022,220608,-6434,-1.96992995,-6586,-2.01646855
2023-11-07 12:18:22.763,1409,234051,220626,-6445,-1.973297875,-6542,-2.00299685
2023-11-07 12:18:22.763,1410,234105,220648,-6481,-1.984320175,-6497,-1.989218975
2023-11-07 12:18:22.763,1411,234123,220661,-6457,-1.976971975,-6440,-1.971767
2023-11-07 12:18:22.763,1412,234165,220673,-6546,-2.00422155,-6369,-1.950028575
2023-11-07 12:18:22.763,1413,234206,220692,-6601,-2.021061175,-6295,-1.927371625
2023-11-07 12:18:22.763,1414,234263,220696,-6616,-2.0256538,-6227,-1.906551725
2023-11-07 12:18:22.792,1415,234306,220717,-6833,-2.092093775,-6170,-1.88909975
2023-11-07 12:18:22.792,1416,234351,220726,-7186,-2.20017355,-6129,-1.876546575
2023-11-07 12:18:22.792,1417,234368,220753,-7479,-2.289882825,-6101,-1.867973675
2023-11-07 12:18:22.792,1418,234445,220781,-7572,-2.3183571,-6080,-1.861544
2023-11-07 12:18:22.792,1419,234472,220794,-7701,-2.357853675,-6078,-1.86093165
2023-11-07 12:18:22.823,1420,234516,220803,-7654,-2.34346345,-6118,-1.87317865
2023-11-07 12:18:22.823,1421,234578,220824,-7801,-2.388471175,-6203,-1.899203525
2023-11-07 12:18:22.823,1422,234605,220847,-7854,-2.40469845,-6327,-1.937169225
2023-11-07 12:18:22.823,1423,234638,220858,-7820,-2.3942885,-6467,-1.980033725
2023-11-07 12:18:22.823,1424,234688,220868,-8082,-2.47450635,-6599,-2.020448825
2023-11-07 12:18:22.823,1425,234728,220893,-8156,-2.4971633,-6711,-2.054740425
2023-11-07 12:18:22.823,1426,234773,220907,-8024,-2.4567482,-6796,-2.0807653
2023-11-07 12:18:22.855,1427,234812,220914,-8133,-2.490121275,-6846,-2.09607405
2023-11-07 12:18:22.855,1428,234816,220924,-8228,-2.5192079,-6869,-2.103116075
2023-11-07 12:18:22.855,1429,234869,220949,-8199,-2.510328825,-6885,-2.108014875
2023-11-07 12:18:22.855,1430,234895,220950,-8330,-2.55043775,-6899,-2.112301325
2023-11-07 12:18:22.855,1431,234934,220952,-8479,-2.596057825,-6891,-2.109851925
2023-11-07 12:18:22.855,1432,234953,220963,-8802,-2.69495235,-6858,-2.09974815
2023-11-07 12:18:22.886,1433,234974,220986,-8533,-2.612591275,-6814,-2.08627645
2023-11-07 12:18:22.886,1434,235019,220986,-8285,-2.536659875,-6776,-2.0746418
2023-11-07 12:18:22.886,1435,235035,221012,-8471,-2.593608425,-6763,-2.070661525
2023-11-07 12:18:22.886,1436,235049,220995,-8529,-2.611366575,-6789,-2.078622075
2023-11-07 12:18:22.886,1437,235080,221015,-8546,-2.61657155,-6864,-2.1015852
2023-11-07 12:18:22.886,1438,235105,221016,-8422,-2.57860585,-6988,-2.1395509
2023-11-07 12:18:22.886,1439,235108,221037,-8534,-2.61289745,-7144,-2.1873142
2023-11-07 12:18:22.886,1440,235118,221038,-8454,-2.58840345,-7301,-2.235383675
2023-11-07 12:18:22.920,1441,235122,221039,-8399,-2.571563825,-7440,-2.277942
2023-11-07 12:18:22.920,1442,235117,221031,-8396,-2.5706453,-7557,-2.313764475
2023-11-07 12:18:22.920,1443,235119,221036,-8226,-2.51859555,-7656,-2.3440758
2023-11-07 12:18:22.920,1444,235118,221037,-8206,-2.51247205,-7751,-2.373162425
2023-11-07 12:18:22.920,1445,235117,221022,-8443,-2.585035525,-7848,-2.4028614
2023-11-07 12:18:22.920,1446,235094,221010,-8268,-2.5314549,-7943,-2.431948025
2023-11-07 12:18:22.920,1447,235089,221014,-8212,-2.5143091,-8024,-2.4567482
2023-11-07 12:18:22.950,1448,235079,220994,-8575,-2.625450625,-8089,-2.476649575
2023-11-07 12:18:22.950,1449,235086,220991,-8612,-2.6367791,-8144,-2.4934892
2023-11-07 12:18:22.950,1450,235051,220982,-8446,-2.58595405,-8194,-2.50879795
2023-11-07 12:18:22.950,1451,235030,220978,-8590,-2.63004325,-8246,-2.52471905
2023-11-07 12:18:22.950,1452,235018,220956,-8661,-2.651781675,-8304,-2.5424772
2023-11-07 12:18:22.982,1453,234967,220964,-8737,-2.675050975,-8364,-2.5608477
2023-11-07 12:18:22.982,1454,234939,220949,-8710,-2.66678425,-8417,-2.577074975
2023-11-07 12:18:22.982,1455,234934,220923,-8596,-2.6318803,-8451,-2.587484925
2023-11-07 12:18:22.982,1456,234899,220905,-8469,-2.592996075,-8468,-2.5926899
2023-11-07 12:18:22.982,1457,234864,220905,-7689,-2.354179575,-8480,-2.596364
2023-11-07 12:18:22.982,1458,234846,220883,-7543,-2.309478025,-8494,-2.60065045
2023-11-07 12:18:22.982,1459,234818,220871,-7827,-2.396431725,-8505,-2.604018375
2023-11-07 12:18:23.011,1460,234785,220875,-7651,-2.342544925,-8501,-2.602793675
2023-11-07 12:18:23.011,1461,234794,220882,-7577,-2.319887975,-8484,-2.5975887
2023-11-07 12:18:23.011,1462,234780,220849,-7669,-2.348056075,-8465,-2.591771375
2023-11-07 12:18:23.011,1463,234800,220872,-7639,-2.338870825,-8439,-2.583810825
2023-11-07 12:18:23.011,1464,234798,220872,-7721,-2.363977175,-8409,-2.574625575
2023-11-07 12:18:23.011,1465,234813,220879,-7753,-2.373774775,-8391,-2.569114425
2023-11-07 12:18:23.041,1466,234828,220894,-7647,-2.341320225,-8393,-2.569726775
2023-11-07 12:18:23.041,1467,234847,220893,-7571,-2.318050925,-8404,-2.5730947
2023-11-07 12:18:23.041,1468,234856,220895,-7787,-2.384184725,-8418,-2.57738115
2023-11-07 12:18:23.041,1469,234879,220901,-7687,-2.353567225,-8433,-2.581973775
2023-11-07 12:18:23.041,1470,234910,220912,-7753,-2.373774775,-8451,-2.587484925
2023-11-07 12:18:23.078,1471,234939,220923,-7735,-2.368263625,-8476,-2.5951393
2023-11-07 12:18:23.078,1472,234955,220933,-7825,-2.395819375,-8506,-2.60432455
2023-11-07 12:18:23.078,1473,234991,220935,-7890,-2.41572075,-8529,-2.611366575
2023-11-07 12:18:23.078,1474,235002,220952,-7822,-2.39490085,-8532,-2.6122851
2023-11-07 12:18:23.078,1475,235036,220969,-7667,-2.347443725,-8510,-2.60554925
2023-11-07 12:18:23.078,1476,235057,220956,-7935,-2.429498625,-8462,-2.59085285
2023-11-07 12:18:23.078,1477,235074,220976,-8380,-2.5657465,-8389,-2.568502075
2023-11-07 12:18:23.108,1478,235109,220986,-8923,-2.731999525,-8298,-2.54064015
2023-11-07 12:18:23.108,1479,235125,220985,-9064,-2.7751702,-8200,-2.510635
2023-11-07 12:18:23.108,1480,235145,221004,-8978,-2.74883915,-8104,-2.4812422
2023-11-07 12:18:23.108,1481,235174,221005,-8978,-2.74883915,-8015,-2.453992625
2023-11-07 12:18:23.108,1482,235189,221009,-8334,-2.55166245,-7935,-2.429498625
2023-11-07 12:18:23.108,1483,235208,221010,-7462,-2.28467785,-7855,-2.405004625
2023-11-07 12:18:23.136,1484,235235,221025,-6958,-2.13036565,-7775,-2.380510625
2023-11-07 12:18:23.136,1485,235247,221046,-7045,-2.157002875,-7716,-2.3624463
2023-11-07 12:18:23.136,1486,235284,221057,-7221,-2.210889675,-7682,-2.35203635
2023-11-07 12:18:23.136,1487,235293,221065,-6862,-2.10097285,-7668,-2.3477499
2023-11-07 12:18:23.136,1488,235314,221078,-7258,-2.22221815,-7675,-2.349893125
2023-11-07 12:18:23.167,1489,235351,221083,-7648,-2.3416264,-7702,-2.35815985
2023-11-07 12:18:23.167,1490,235355,221084,-7549,-2.311315075,-7736,-2.3685698
2023-11-07 12:18:23.167,1491,235359,221067,-7248,-2.2191564,-7760,-2.375918
2023-11-07 12:18:23.167,1492,235384,221097,-7470,-2.28712725,-7766,-2.37775505
2023-11-07 12:18:23.167,1493,235399,221096,-7435,-2.276411125,-7768,-2.3783674
2023-11-07 12:18:23.167,1494,235403,221114,-7286,-2.23079105,-7794,-2.38632795
2023-11-07 12:18:23.200,1495,235432,221097,-7365,-2.254978875,-7860,-2.4065355
2023-11-07 12:18:23.200,1496,235446,221127,-7365,-2.254978875,-7959,-2.436846825
2023-11-07 12:18:23.200,1497,235475,221127,-7034,-2.15363495,-8075,-2.472363125
2023-11-07 12:18:23.200,1498,235460,221135,-7099,-2.173536325,-8193,-2.508491775
2023-11-07 12:18:23.200,1499,235473,221132,-6852,-2.0979111,-8289,-2.537884575
2023-11-07 12:18:23.200,1500,235501,221136,-6751,-2.066987425,-8338,-2.55288715
2023-11-07 12:18:23.230,1501,235519,221152,-6483,-1.984932525,-8331,-2.550743925
2023-11-07 12:18:23.231,1502,235501,221135,-6591,-2.017999425,-8287,-2.537272225
2023-11-07 12:18:23.231,1503,235530,221138,-6497,-1.989218975,-8222,-2.51737085
2023-11-07 12:18:23.231,1504,235529,221147,-6337,-1.940230975,-8133,-2.490121275
2023-11-07 12:18:23.231,1505,235514,221149,-6386,-1.95523355,-8026,-2.45736055
2023-11-07 12:18:23.231,1506,235542,221146,-6380,-1.9533965,-7914,-2.42306895
2023-11-07 12:18:23.231,1507,235554,221158,-6291,-1.926146925,-7798,-2.38755265
2023-11-07 12:18:23.262,1508,235565,221149,-6215,-1.902877625,-7674,-2.34958695
2023-11-07 12:18:23.262,1509,235565,221177,-6269,-1.919411075,-7544,-2.3097842
2023-11-07 12:18:23.262,1510,235590,221165,-6349,-1.943905075,-7423,-2.272737025
2023-11-07 12:18:23.262,1511,235587,221165,-6384,-1.9546212,-7332,-2.2448751
2023-11-07 12:18:23.262,1512,235596,221178,-6203,-1.899203525,-7286,-2.23079105
2023-11-07 12:18:23.262,1513,235610,221175,-6134,-1.87807745,-7281,-2.229260175
2023-11-07 12:18:23.262,1514,235610,221164,-6158,-1.88542565,-7300,-2.2350775
2023-11-07 12:18:23.291,1515,235638,221174,-6198,-1.89767265,-7332,-2.2448751
2023-11-07 12:18:23.291,1516,235625,221180,-6438,-1.97115465,-7351,-2.250692425
2023-11-07 12:18:23.291,1517,235630,221197,-6287,-1.924922225,-7327,-2.243344225
2023-11-07 12:18:23.291,1518,235645,221182,-6128,-1.8762404,-7259,-2.222524325
2023-11-07 12:18:23.291,1519,235652,221188,-6163,-1.886956525,-7170,-2.19527475
2023-11-07 12:18:23.291,1520,235658,221182,-6114,-1.87195395,-7073,-2.165575775
2023-11-07 12:18:23.324,1521,235646,221173,-6079,-1.861237825,-6977,-2.136182975
2023-11-07 12:18:23.324,1522,235630,221177,-6132,-1.8774651,-6890,-2.10954575
2023-11-07 12:18:23.324,1523,235612,221175,-5856,-1.7929608,-6808,-2.0844394
2023-11-07 12:18:23.324,1524,235578,221139,-6044,-1.8505217,-6723,-2.058414525
2023-11-07 12:18:23.324,1525,235491,221112,-5965,-1.826333875,-6636,-2.0317773
2023-11-07 12:18:23.324,1526,235423,221087,-5898,-1.80582015,-6550,-2.00544625
2023-11-07 12:18:23.324,1527,235323,221028,-6048,-1.8517464,-6476,-1.9827893
2023-11-07 12:18:23.355,1528,235225,220991,-5998,-1.83643765,-6421,-1.965949675
2023-11-07 12:18:23.355,1529,235072,220931,-5758,-1.76295565,-6383,-1.954315025
2023-11-07 12:18:23.355,1530,234899,220860,-5654,-1.73111345,-6353,-1.945129775
2023-11-07 12:18:23.355,1531,234703,220769,-5775,-1.768160625,-6329,-1.937781575
2023-11-07 12:18:23.355,1532,234582,220724,-5769,-1.766323575,-6310,-1.93196425
2023-11-07 12:18:23.355,1533,234434,220644,-5494,-1.68212545,-6296,-1.9276778
2023-11-07 12:18:23.387,1534,234294,220611,-5629,-1.723459075,-6283,-1.923697525
2023-11-07 12:18:23.387,1535,234187,220573,-5674,-1.73723695,-6269,-1.919411075
2023-11-07 12:18:23.387,1536,234091,220537,-5367,-1.643241225,-6261,-1.916961675
2023-11-07 12:18:23.387,1537,234003,220503,-5410,-1.65640675,-6255,-1.915124625
2023-11-07 12:18:23.387,1538,233927,220479,-5675,-1.737543125,-6247,-1.912675225
2023-11-07 12:18:23.416,1539,233905,220449,-5480,-1.677839,-6231,-1.907776425
2023-11-07 12:18:23.416,1540,233842,220445,-5640,-1.726827,-6207,-1.900428225
2023-11-07 12:18:23.416,1541,233836,220412,-5533,-1.694066275,-6179,-1.891855325
